-0.00544
-0.00611
-0.00683
-0.00719
-0.00746
-0.00732
-0.00629
-0.00566
-0.00508
-0.00431
-0.0044
-0.00566
-0.00557
-0.00611
-0.00701
-0.00791
-0.00889
-0.00952
-0.00997
-0.01024
-0.01029
-0.01141
-0.01271
-0.01294
-0.0124
-0.01213
-0.01123
-0.01078
-0.00988
-0.00889
-0.00827
-0.00809
-0.00732
-0.00755
-0.00696
-0.00687
-0.00656
-0.00683
-0.00584
-0.00494
-0.00449
-0.00503
-0.00611
-0.00588
-0.00548
-0.00557
-0.00548
-0.00584
-0.00701
-0.00665
-0.00719
-0.00737
-0.00674
-0.00782
-0.00818
-0.00768
-0.00773
-0.00683
-0.00629
-0.0062
-0.00647
-0.00665
-0.00701
-0.00737
-0.00755
-0.00701
-0.00768
-0.00719
-0.00777
-0.00773
-0.00777
-0.00872
-0.00916
-0.00898
-0.01006
-0.01074
-0.01141
-0.01249
-0.01343
-0.01402
-0.01294
-0.0115
-0.00916
-0.00746
-0.00737
-0.00665
-0.00791
-0.00916
-0.00975
-0.01096
-0.01312
-0.01352
-0.01379
-0.01276
-0.01096
-0.00975
-0.00925
-0.00791
-0.00571
-0.00171
0.00252
0.00647
0.01078
0.01482
0.0168
0.01896
0.02093
0.02174
0.02264
0.02291
0.02264
0.02237
0.02228
0.02192
0.0212
0.02048
0.02022
0.02031
0.02044
0.02102
0.0221
0.02358
0.0248
0.02543
0.02731
0.02857
0.03046
0.03145
0.03234
0.03279
0.03315
0.03207
0.03068
0.03023
0.031
0.02929
0.02722
0.02448
0.02242
0.01959
0.01752
0.01599
0.01509
0.01348
0.0124
0.01047
0.00863
0.00692
0.00377
0.00216
0.0013
0.00036
0.00072
0.00117
0.00162
0.0018
0.00261
0.00323
0.00332
0.00216
0.0009
0.00072
0.00054
0.00031
-0.00036
-0.00126
-0.00234
-0.00153
-0.00126
-0.00085
-0.00063
-9.00E-05
0.00031
0.0009
0.00072
0.00198
0.00252
0.00288
0.00198
0.00126
0.00018
0.00108
0.00162
0.00144
0.00072
0.00081
0.00162
0.00225
0.00368
0.0044
0.00431
0.00503
0.00467
0.00413
0.00359
0.00337
0.00323
0.00166
0.0009
0.00018
-0.00117
-0.00135
-0.00117
-0.00085
-0.00144
-0.00108
-0.00135
-0.00216
-0.00247
-0.00337
-0.00431
-0.00611
-0.0088
-0.01141
-0.01698
-0.02462
-0.03455
-0.04627
-0.0611
-0.07691
-0.09344
-0.10898
-0.12372
-0.13746
-0.14892
-0.15575
-0.15759
-0.15579
-0.15072
-0.14236
-0.12807
-0.10683
-0.0814
-0.05301
-0.02606
0.0018
0.02947
0.0584
0.09038
0.12947
0.17394
0.22524
0.28553
0.35435
0.42802
0.50421
0.57501
0.62928
0.66782
0.6932
0.70116
0.6884
0.65767
0.61311
0.55561
0.48966
0.41922
0.34914
0.28625
0.23198
0.18499
0.14663
0.11734
0.09721
0.08544
0.07745
0.07152
0.06649
0.06127
0.05543
0.05121
0.04816
0.04501
0.03863
0.03082
0.02174
0.01384
0.00692
0.00027
-0.00674
-0.01375
-0.01905
-0.02269
-0.02641
-0.02947
-0.03199
-0.03392
-0.03657
-0.03747
-0.03818
-0.03872
-0.04025
-0.04115
-0.04187
-0.0434
-0.04492
-0.04569
-0.04609
-0.04667
-0.04672
-0.04708
-0.04672
-0.04623
-0.04708
-0.04708
-0.04645
-0.04636
-0.04528
-0.04456
-0.04402
-0.04389
-0.04438
-0.04488
-0.04488
-0.04546
-0.04618
-0.04578
-0.04578
-0.04596
-0.04569
-0.0451
-0.04411
-0.04313
-0.04223
-0.0416
-0.04079
-0.03913
-0.03738
-0.03715
-0.0372
-0.03729
-0.03783
-0.03791
-0.03693
-0.0367
-0.03729
-0.03791
-0.03845
-0.03881
-0.03917
-0.03908
-0.03859
-0.03872
-0.03863
-0.03859
-0.03791
-0.0372
-0.03657
-0.03612
-0.0363
-0.03549
-0.03432
-0.03369
-0.03306
-0.03288
-0.03194
-0.03082
-0.02929
-0.02857
-0.02808
-0.02767
-0.02664
-0.02677
-0.02588
-0.02516
-0.02516
-0.02462
-0.02318
-0.02165
-0.02062
-0.02048
-0.02084
-0.0221
-0.02246
-0.02309
-0.0221
-0.02057
-0.0195
-0.01905
-0.01761
-0.01739
-0.01667
-0.01617
-0.01491
-0.01438
-0.015
-0.01572
-0.0159
-0.015
-0.01433
-0.01464
-0.01433
-0.01473
-0.01438
-0.0142
-0.01402
-0.0133
-0.01294
-0.01276
-0.01253
-0.01204
-0.01056
-0.01042
-0.00912
-0.00791
-0.00593
-0.00449
-0.00368
-0.00332
-0.00216
-0.00126
0.00031
0.00126
0.00288
0.00431
0.00472
0.00476
0.00503
0.00593
0.00584
0.00584
0.00611
0.00629
0.00683
0.00782
0.0088
0.00975
0.0115
0.01384
0.01563
0.01779
0.01851
0.01887
0.02022
0.02102
0.02192
0.02174
0.02327
0.02426
0.02534
0.02659
0.02794
0.02857
0.02947
0.03037
0.03145
0.03315
0.03522
0.03841
0.04178
0.04519
0.04762
0.04861
0.05081
0.05148
0.05292
0.05499
0.05714
0.0584
0.05822
0.05921
0.06038
0.06217
0.06325
0.06496
0.06729
0.07026
0.07197
0.07385
0.07529
0.07673
0.07835
0.07942
0.08149
0.08275
0.08347
0.08275
0.08266
0.08239
0.0832
0.08428
0.08562
0.08729
0.08787
0.08877
0.08985
0.09021
0.09128
0.092
0.09218
0.09187
0.09232
0.09326
0.09308
0.09384
0.09474
0.09506
0.09506
0.09425
0.09542
0.09694
0.09721
0.09685
0.09658
0.09542
0.09461
0.09326
0.09137
0.08958
0.0876
0.08481
0.08113
0.07664
0.07255
0.06828
0.06442
0.05957
0.05391
0.04816
0.04375
0.03935
0.03558
0.03181
0.02731
0.02282
0.01887
0.01527
0.0124
0.00898
0.00593
0.0027
-0.00103
-0.00409
-0.00741
-0.01042
-0.01366
-0.01671
-0.01977
-0.02336
-0.0274
-0.03109
-0.03342
-0.03576
-0.03791
-0.03958
-0.0425
-0.04456
-0.04636
-0.04721
-0.04901
-0.05157
-0.0535
-0.05499
-0.05606
-0.05602
-0.05624
-0.05606
-0.0566
-0.05723
-0.05876
-0.05948
-0.06056
-0.06199
-0.06325
-0.06397
-0.06415
-0.06451
-0.06631
-0.06604
-0.0659
-0.06631
-0.06532
-0.06451
-0.06361
-0.06298
-0.06199
-0.06092
-0.0611
-0.06092
-0.06118
-0.06163
-0.06145
-0.06172
-0.06092
-0.06015
-0.05993
-0.05966
-0.0593
-0.05876
-0.05795
-0.0584
-0.05894
-0.06056
-0.06136
-0.06065
-0.05966
-0.05966
-0.05966
-0.0593
-0.05795
-0.05678
-0.05534
-0.05472
-0.05463
-0.05427
-0.05359
-0.05301
-0.05314
-0.05292
-0.05292
-0.05256
-0.05189
-0.05085
-0.05045
-0.05013
-0.05022
-0.05009
-0.05013
-0.04995
-0.05004
-0.04906
-0.04924
-0.05009
-0.04942
-0.04744
-0.04614
-0.04524
-0.04438
-0.04349
-0.04268
-0.04295
-0.04322
-0.04268
-0.04259
-0.0425
-0.04313
-0.04438
-0.04456
-0.04492
-0.04492
-0.04456
-0.0434
-0.04313
-0.04277
-0.04187
-0.04061
-0.03998
-0.03931
-0.03922
-0.03881
-0.03845
-0.03818
-0.03863
-0.03774
-0.0363
-0.03621
-0.03639
-0.03648
-0.03697
-0.03765
-0.03774
-0.03738
-0.03738
-0.03769
-0.0372
-0.03612
-0.03666
-0.03639
-0.03738
-0.03679
-0.03648
-0.03648
-0.03589
-0.03369
-0.03333
-0.03252
-0.03145
-0.03019
-0.02911
-0.02785
-0.02817
-0.02947
-0.03055
-0.03091
-0.03019
-0.03055
-0.03127
-0.02965
-0.03001
-0.02983
-0.02821
-0.02767
-0.02866
-0.02902
-0.03001
-0.03091
-0.03046
-0.03019
-0.02947
-0.02767
-0.0265
-0.02677
-0.02677
-0.02677
-0.02695
-0.02565
-0.02444
-0.02394
-0.023
-0.02228
-0.02318
-0.02336
-0.02273
-0.02228
-0.02228
-0.02318
-0.023
-0.02134
-0.02183
-0.02156
-0.02174
-0.02084
-0.02084
-0.01986
-0.01905
-0.01896
-0.01905
-0.0186
-0.01797
-0.01725
-0.01644
-0.01617
-0.01572
-0.01563
-0.01545
-0.01581
-0.01631
-0.01761
-0.01801
-0.01833
-0.01761
-0.01635
-0.01563
-0.01518
-0.01509
-0.01509
-0.01563
-0.01545
-0.01527
-0.01536
-0.01563
-0.01473
-0.0142
-0.01325
-0.0124
-0.01132
-0.01199
-0.0124
-0.01222
-0.01285
-0.01316
-0.01213
-0.0111
-0.0106
-0.0106
-0.01096
-0.01105
-0.01069
-0.01006
-0.0097
-0.01006
-0.01087
-0.01119
-0.0119
-0.01375
-0.01438
-0.01491
-0.01482
-0.01536
-0.01527
-0.01617
-0.01626
-0.01473
-0.0133
-0.01186
-0.01006
-0.008
-0.00678
-0.00647
-0.00629
-0.00629
-0.00656
-0.00746
-0.00773
-0.00714
-0.00791
-0.00898
-0.01006
-0.01168
-0.01168
-0.0115
-0.01078
-0.01078
-0.0115
-0.01204
-0.01186
-0.01078
-0.01105
-0.01069
-0.00979
-0.00831
-0.00692
-0.00575
-0.00575
-0.00539
-0.00548
-0.00485
-0.00404
-0.0044
-0.00467
-0.00485
-0.00494
-0.00467
-0.00521
-0.00544
-0.00544
-0.00512
-0.00485
-0.00548
-0.00503
-0.00548
-0.00602
-0.00629
-0.00575
-0.00467
-0.0035
-0.00341
-0.00279
-0.00323
-0.00395
-0.00386
-0.00445
-0.0053
-0.00548
-0.00467
-0.00485
-0.00485
-0.00521
-0.00557
-0.00548
-0.00544
-0.0058
-0.00732
-0.00836
-0.00867
-0.00898
-0.00921
-0.00858
-0.0075
-0.00782
-0.00719
-0.0066
-0.00647
-0.00562
-0.00593
-0.0053
-0.00413
-0.00323
-0.0027
-0.00256
-0.00305
-0.00261
-0.00261
-0.00296
-0.00332
-0.0035
-0.00395
-0.00395
-0.00391
-0.00305
-0.00359
-0.00314
-0.00341
-0.00395
-0.00332
-0.00305
-0.00359
-0.00395
-0.00422
-0.00422
-0.00467
-0.00449
-0.00431
-0.00512
-0.0053
-0.00629
-0.00818
-0.00952
-0.00988
-0.00988
-0.00952
-0.01006
-0.01042
-0.01123
-0.01092
-0.0115
-0.01276
-0.01343
-0.01213
-0.01042
-0.00845
-0.0062
-0.00575
-0.00521
-0.0053
-0.0044
-0.00463
-0.00544
-0.00548
-0.00602
-0.00602
-0.00674
-0.00719
-0.00737
-0.00854
-0.00898
-0.00988
-0.01006
-0.00961
-0.00916
-0.0097
-0.01006
-0.01042
-0.00988
-0.00988
-0.00943
-0.00997
-0.01146
-0.01141
-0.01276
-0.01366
-0.01402
-0.01455
-0.01411
-0.01321
-0.01181
-0.01132
-0.00966
-0.0088
-0.00773
-0.00642
-0.0053
-0.00611
-0.00773
-0.00898
-0.01024
-0.01276
-0.0142
-0.0142
-0.01366
-0.01285
-0.01114
-0.00804
-0.00445
0.00018
0.00449
0.00925
0.0133
0.01698
0.02013
0.02255
0.02435
0.0257
0.02668
0.02713
0.02623
0.02534
0.02426
0.02314
0.023
0.02228
0.02282
0.02444
0.0252
0.02623
0.02713
0.0283
0.02902
0.02947
0.03055
0.03199
0.03324
0.03324
0.03333
0.03243
0.03145
0.02965
0.02857
0.02848
0.02713
0.02606
0.02367
0.01995
0.01761
0.01545
0.01348
0.01258
0.01074
0.00863
0.00629
0.00485
0.00314
0.0018
-0.00018
-0.00045
-0.00153
-0.00207
-0.00234
-0.00216
-0.00252
-0.00332
-0.0044
-0.00503
-0.00404
-0.00279
-0.00094
0.00045
0.00126
0.0009
0.00139
0.00072
-0.00036
-0.00018
-0.00045
-0.00013
-4.00E-05
0
-0.00018
-0.00108
-0.00166
-0.00198
-0.00216
-0.00341
-0.00467
-0.00467
-0.00386
-0.00377
-0.00395
-0.00431
-0.00449
-0.00494
-0.00458
-0.00445
-0.00508
-0.00593
-0.00728
-0.00755
-0.00845
-0.00827
-0.00822
-0.00764
-0.00719
-0.00773
-0.00746
-0.00719
-0.00719
-0.00791
-0.00809
-0.00773
-0.00759
-0.00809
-0.0106
-0.01249
-0.01411
-0.01545
-0.01743
-0.02013
-0.02318
-0.02776
-0.03504
-0.04465
-0.05732
-0.07188
-0.0876
-0.10404
-0.12111
-0.13683
-0.15049
-0.16145
-0.16936
-0.17457
-0.1752
-0.17143
-0.16154
-0.14681
-0.12628
-0.10108
-0.07313
-0.04573
-0.01747
0.01312
0.04452
0.07799
0.11428
0.15489
0.2026
0.25876
0.32398
0.39748
0.47313
0.54491
0.60628
0.65426
0.68867
0.70511
0.69936
0.67187
0.63036
0.57573
0.50853
0.43234
0.35453
0.28427
0.22282
0.17178
0.13064
0.09497
0.06846
0.05094
0.03854
0.03037
0.02498
0.0212
0.01797
0.01455
0.01285
0.01294
0.01258
0.0097
0.00382
-0.00472
-0.01357
-0.02013
-0.02493
-0.02983
-0.03396
-0.03684
-0.03967
-0.04052
-0.04178
-0.04169
-0.04223
-0.04326
-0.04349
-0.04331
-0.04295
-0.04254
-0.04232
-0.04277
-0.04366
-0.04389
-0.04416
-0.0434
-0.04402
-0.0442
-0.04438
-0.0451
-0.04569
-0.04519
-0.04569
-0.04492
-0.04474
-0.04483
-0.0451
-0.04582
-0.04717
-0.04703
-0.04726
-0.04789
-0.04771
-0.04744
-0.04708
-0.04726
-0.04636
-0.04492
-0.04438
-0.04331
-0.04169
-0.04106
-0.03881
-0.038
-0.0372
-0.0358
-0.03594
-0.03612
-0.0354
-0.03594
-0.03594
-0.03612
-0.0363
-0.03571
-0.03396
-0.03342
-0.03324
-0.03288
-0.03311
-0.03333
-0.03199
-0.03163
-0.03091
-0.03037
-0.03014
-0.03019
-0.02803
-0.02623
-0.02435
-0.02318
-0.02269
-0.02219
-0.02242
-0.02192
-0.0212
-0.02192
-0.02269
-0.02372
-0.02269
-0.02201
-0.02102
-0.01882
-0.01765
-0.01577
-0.01339
-0.01222
-0.01186
-0.01164
-0.01123
-0.01096
-0.01096
-0.0111
-0.01119
-0.01042
-0.01042
-0.01006
-0.00952
-0.00934
-0.00907
-0.00795
-0.00827
-0.00764
-0.00782
-0.00701
-0.00503
-0.00377
-0.00261
-0.0027
-0.0027
-0.00261
-0.00108
0.00027
0.00162
0.00252
0.00323
0.00319
0.00256
0.00216
0.00162
0.00126
0.00225
0.00261
0.00252
0.00288
0.00413
0.00476
0.0053
0.00638
0.00746
0.00854
0.00934
0.01168
0.01321
0.01509
0.01599
0.01707
0.01824
0.01905
0.01995
0.02152
0.02188
0.02174
0.02251
0.02331
0.02408
0.0248
0.02606
0.02731
0.02848
0.03001
0.03073
0.03163
0.03306
0.03455
0.03522
0.03684
0.03863
0.0398
0.04088
0.04344
0.04546
0.04798
0.05013
0.05202
0.05373
0.05521
0.05696
0.0575
0.05804
0.05948
0.06127
0.06316
0.06379
0.06586
0.06667
0.06828
0.0699
0.07107
0.07313
0.07547
0.07844
0.08086
0.08176
0.08365
0.08517
0.08751
0.08868
0.09101
0.09232
0.09366
0.09425
0.0947
0.09658
0.09807
0.09991
0.10121
0.10224
0.10314
0.10386
0.10584
0.10728
0.10907
0.11024
0.11069
0.11141
0.11114
0.11069
0.10997
0.10979
0.11015
0.11087
0.11123
0.11177
0.11141
0.10925
0.10876
0.1071
0.10548
0.10355
0.10206
0.09955
0.09856
0.09636
0.0947
0.09232
0.08985
0.08715
0.08257
0.07781
0.07331
0.06801
0.06235
0.05732
0.05382
0.0495
0.04587
0.04187
0.03791
0.03288
0.02821
0.02399
0.01995
0.01635
0.01276
0.00943
0.00602
0.00341
0.00094
-0.00216
-0.00629
-0.00997
-0.0142
-0.01833
-0.02228
-0.02516
-0.02776
-0.02987
-0.03338
-0.03733
-0.04079
-0.04416
-0.04555
-0.0469
-0.04879
-0.05031
-0.05211
-0.05301
-0.05427
-0.05534
-0.05642
-0.05804
-0.06029
-0.06118
-0.06163
-0.06208
-0.06271
-0.06235
-0.0611
-0.06118
-0.06087
-0.06172
-0.06298
-0.06406
-0.06487
-0.06631
-0.0672
-0.0672
-0.06738
-0.06711
-0.06725
-0.06711
-0.06613
-0.06685
-0.06711
-0.06747
-0.06882
-0.06891
-0.06918
-0.06909
-0.0681
-0.06738
-0.06667
-0.06568
-0.06559
-0.065
-0.06469
-0.06487
-0.06532
-0.06478
-0.06415
-0.06469
-0.06523
-0.06523
-0.06622
-0.0664
-0.06608
-0.06451
-0.06343
-0.06388
-0.06464
-0.06446
-0.06393
-0.06294
-0.06163
-0.0606
-0.06047
-0.05984
-0.05993
-0.0593
-0.06002
-0.05907
-0.05858
-0.05633
-0.05517
-0.05422
-0.05454
-0.05422
-0.05355
-0.05247
-0.05085
-0.05013
-0.04861
-0.04834
-0.04843
-0.04834
-0.04852
-0.04771
-0.04703
-0.04667
-0.046
-0.04573
-0.04708
-0.04762
-0.04708
-0.04721
-0.04699
-0.0478
-0.04807
-0.04852
-0.04816
-0.04807
-0.04708
-0.04524
-0.04384
-0.04331
-0.04205
-0.0416
-0.04115
-0.04097
-0.0407
-0.0398
-0.03917
-0.03765
-0.03711
-0.03585
-0.03562
-0.03504
-0.03576
-0.03648
-0.03697
-0.03765
-0.0372
-0.0363
-0.03567
-0.0341
-0.03252
-0.03181
-0.03037
-0.02938
-0.02947
-0.02983
-0.03082
-0.03154
-0.03176
-0.03131
-0.03127
-0.02956
-0.02866
-0.02731
-0.02615
-0.02547
-0.02498
-0.02457
-0.0239
-0.02417
-0.02309
-0.02206
-0.02134
-0.02075
-0.02075
-0.02093
-0.02066
-0.0212
-0.02111
-0.02273
-0.02372
-0.02318
-0.023
-0.02269
-0.02269
-0.023
-0.02228
-0.0221
-0.02138
-0.02048
-0.02057
-0.02004
-0.01959
-0.02039
-0.02102
-0.0221
-0.02269
-0.02201
-0.02138
-0.02098
-0.02066
-0.01981
-0.01936
-0.01887
-0.01923
-0.01941
-0.01923
-0.01815
-0.01608
-0.01527
-0.01438
-0.01348
-0.01375
-0.01276
-0.01258
-0.01213
-0.01168
-0.0115
-0.0106
-0.01078
-0.01042
-0.01069
-0.01096
-0.0106
-0.01042
-0.01015
-0.01078
-0.01078
-0.00979
-0.00898
-0.00755
-0.00696
-0.00611
-0.00566
-0.00683
-0.00827
-0.00948
-0.00979
-0.00988
-0.00894
-0.00827
-0.00836
-0.00898
-0.00943
-0.00966
-0.00782
-0.0062
-0.00503
-0.00544
-0.00503
-0.00521
-0.00458
-0.00359
-0.00332
-0.00319
-0.00413
-0.00476
-0.00588
-0.00606
-0.00629
-0.00629
-0.00683
-0.00611
-0.0066
-0.00768
-0.00827
-0.00845
-0.00827
-0.00737
-0.00674
-0.00611
-0.00544
-0.00557
-0.00557
-0.00544
-0.00665
-0.00755
-0.00755
-0.00737
-0.00818
-0.00764
-0.00562
-0.00539
-0.00539
-0.00503
-0.00409
-0.0044
-0.00467
-0.00449
-0.00377
-0.00404
-0.00521
-0.00602
-0.00602
-0.00548
-0.00562
-0.00557
-0.00544
-0.00386
-0.0027
-0.00193
-0.00117
-0.0009
-0.00072
-0.00135
-0.00117
-0.00108
-0.00063
-0.00162
-0.00216
-0.00234
-0.00279
-0.00341
-0.00395
-0.00368
-0.00359
-0.00279
-0.00225
-0.0018
-0.00139
-0.00126
-0.00072
-0.00099
-0.00157
-0.00247
-0.00305
-0.00234
-0.00135
-0.00072
-0.00027
0.00117
0.00234
0.00305
0.00305
0.0027
0.0031
0.00377
0.00449
0.00512
0.00566
0.00557
0.00521
0.00521
0.0062
0.00575
0.00548
0.00629
0.00606
0.00683
0.00656
0.0071
0.00615
0.00548
0.00503
0.00413
0.00288
0.00148
0.00031
-4.00E-05
-0.00216
-0.0035
-0.00449
-0.00593
-0.00647
-0.00588
-0.00575
-0.00503
-0.00368
-0.00323
-0.00359
-0.00395
-0.00395
-0.00391
-0.00364
-0.00472
-0.00593
-0.00723
-0.00898
-0.0097
-0.01069
-0.01105
-0.01168
-0.01258
-0.0115
-0.01006
-0.00934
-0.00863
-0.00872
-0.00952
-0.00952
-0.01033
-0.01114
-0.01321
-0.01464
-0.01572
-0.01649
-0.01491
-0.01294
-0.01042
-0.00696
-0.00391
-0.00018
0.00314
0.00791
0.01276
0.01698
0.01995
0.0212
0.02305
0.02444
0.02435
0.02462
0.02426
0.02237
0.02039
0.01873
0.01797
0.01756
0.01788
0.01869
0.01837
0.01905
0.02013
0.02084
0.02165
0.02309
0.02399
0.02363
0.0243
0.02498
0.02677
0.02713
0.02592
0.02435
0.02291
0.02165
0.02022
0.019
0.01743
0.01563
0.01384
0.01312
0.01262
0.01159
0.01006
0.00845
0.00647
0.00467
0.00207
0.00031
-0.00103
-0.00198
-0.00211
-0.00243
-0.00234
-0.00234
-0.00252
-0.00283
-0.00413
-0.00449
-0.00544
-0.00606
-0.00629
-0.00692
-0.00818
-0.00827
-0.00943
-0.00975
-0.01024
-0.01078
-0.0106
-0.00988
-0.00961
-0.00988
-0.00916
-0.00863
-0.00898
-0.00889
-0.00952
-0.00925
-0.01006
-0.00988
-0.0102
-0.01078
-0.01213
-0.01258
-0.01312
-0.01379
-0.01366
-0.01312
-0.01123
-0.00988
-0.00952
-0.0088
-0.00759
-0.00719
-0.00746
-0.00773
-0.00782
-0.0088
-0.00984
-0.01051
-0.01078
-0.01096
-0.01119
-0.01096
-0.01078
-0.01186
-0.01271
-0.0133
-0.01473
-0.01671
-0.01851
-0.02165
-0.02588
-0.03037
-0.03809
-0.04834
-0.06056
-0.07385
-0.08967
-0.10615
-0.12156
-0.13612
-0.14896
-0.15993
-0.1663
-0.16855
-0.16711
-0.16091
-0.15112
-0.13522
-0.11361
-0.08661
-0.05777
-0.03019
-0.00108
0.02695
0.05638
0.08985
0.13091
0.17771
0.23144
0.29415
0.3637
0.43719
0.51266
0.58202
0.63665
0.6769
0.70259
0.70821
0.69181
0.65884
0.61113
0.55004
0.47816
0.40107
0.32677
0.25992
0.20444
0.15741
0.11828
0.08913
0.0699
0.0575
0.05
0.04295
0.0372
0.03145
0.02623
0.02138
0.01743
0.01384
0.00791
0.00031
-0.00872
-0.01725
-0.02435
-0.03073
-0.03684
-0.0425
-0.0478
-0.05103
-0.05337
-0.05579
-0.05768
-0.05921
-0.06002
-0.06074
-0.0611
-0.0611
-0.06029
-0.06002
-0.06029
-0.06011
-0.06047
-0.06083
-0.06195
-0.06298
-0.06397
-0.06469
-0.06541
-0.06595
-0.06631
-0.06568
-0.06608
-0.06613
-0.06613
-0.06649
-0.06626
-0.06568
-0.06469
-0.06415
-0.06388
-0.06388
-0.06428
-0.06339
-0.06343
-0.06343
-0.06271
-0.06163
-0.0611
-0.06038
-0.06006
-0.05966
-0.05894
-0.05795
-0.05768
-0.05696
-0.05714
-0.05656
-0.05633
-0.05534
-0.05391
-0.05364
-0.05319
-0.05229
-0.05148
-0.05049
-0.04977
-0.04852
-0.04618
-0.04474
-0.04349
-0.04349
-0.04205
-0.04097
-0.04007
-0.03836
-0.03729
-0.03702
-0.0363
-0.03522
-0.03499
-0.03414
-0.03405
-0.03324
-0.0319
-0.03234
-0.03216
-0.03216
-0.03131
-0.03109
-0.03109
-0.03001
-0.02844
-0.02637
-0.02444
-0.02417
-0.02435
-0.0248
-0.02444
-0.0239
-0.02426
-0.02543
-0.02588
-0.02677
-0.02606
-0.02606
-0.02471
-0.02426
-0.0239
-0.023
-0.02291
-0.02408
-0.02417
-0.02453
-0.02327
-0.02192
-0.02192
-0.02192
-0.02192
-0.02174
-0.02084
-0.01995
-0.01905
-0.01788
-0.01689
-0.01563
-0.01464
-0.01307
-0.01141
-0.00889
-0.00791
-0.00701
-0.00593
-0.00413
-0.00252
-0.00198
-0.00126
-0.00063
4.00E-05
0.00018
0.00072
0.00072
-0.00054
-0.00036
-0.00054
0
0.00031
0.00054
0.00072
0
0.00126
0.00198
0.00279
0.00413
0.00521
0.00647
0.00845
0.01038
0.01222
0.01289
0.01334
0.01348
0.01518
0.01689
0.01833
0.0195
0.0212
0.02269
0.02381
0.02426
0.02516
0.02821
0.03037
0.03297
0.03522
0.03791
0.04079
0.04277
0.0447
0.04627
0.04798
0.04919
0.05085
0.05337
0.05499
0.05624
0.05768
0.05898
0.06083
0.06325
0.06478
0.06613
0.06658
0.0672
0.06756
0.069
0.07134
0.07331
0.07475
0.07767
0.07987
0.08122
0.08275
0.08392
0.08499
0.08553
0.08634
0.08589
0.08544
0.08499
0.08598
0.08715
0.08886
0.08985
0.09173
0.09362
0.09524
0.09649
0.09775
0.09901
0.09991
0.10018
0.10045
0.10094
0.10081
0.10108
0.10063
0.09946
0.09766
0.09613
0.09434
0.09263
0.08985
0.08778
0.08571
0.08338
0.07987
0.07641
0.07331
0.07035
0.06738
0.06505
0.06199
0.05768
0.05346
0.04852
0.04411
0.0394
0.03562
0.03127
0.02637
0.02084
0.0173
0.01393
0.01029
0.00746
0.00463
0.00216
-0.0018
-0.00494
-0.00719
-0.01024
-0.01294
-0.01527
-0.01815
-0.02008
-0.02183
-0.02426
-0.0265
-0.0283
-0.02942
-0.03091
-0.03234
-0.03324
-0.03432
-0.03652
-0.03935
-0.04169
-0.04402
-0.04681
-0.04726
-0.0487
-0.04897
-0.04977
-0.05013
-0.05049
-0.05067
-0.05085
-0.05193
-0.05247
-0.05229
-0.05247
-0.05238
-0.05265
-0.05364
-0.05332
-0.05346
-0.05337
-0.05265
-0.05278
-0.05314
-0.0531
-0.05323
-0.05427
-0.05418
-0.05391
-0.05301
-0.05265
-0.05175
-0.05067
-0.04995
-0.04959
-0.0478
-0.0469
-0.04546
-0.04456
-0.04416
-0.04438
-0.04528
-0.0451
-0.04569
-0.04537
-0.046
-0.046
-0.04492
-0.04402
-0.04254
-0.04187
-0.04259
-0.04313
-0.0434
-0.04438
-0.04501
-0.04519
-0.04528
-0.0438
-0.04205
-0.04007
-0.03917
-0.03783
-0.03648
-0.03468
-0.03306
-0.03225
-0.03252
-0.03266
-0.03306
-0.0336
-0.03414
-0.03414
-0.03338
-0.03369
-0.0345
-0.03441
-0.0336
-0.03284
-0.03181
-0.03176
-0.03225
-0.0327
-0.03333
-0.03342
-0.03297
-0.03194
-0.03136
-0.03091
-0.031
-0.0319
-0.03252
-0.03302
-0.03311
-0.03432
-0.03513
-0.03531
-0.0336
-0.03288
-0.03216
-0.03288
-0.03257
-0.03288
-0.03342
-0.03275
-0.03234
-0.03176
-0.03046
-0.03037
-0.02938
-0.02857
-0.02812
-0.02659
-0.02534
-0.02354
-0.02336
-0.02372
-0.02421
-0.02417
-0.02381
-0.02363
-0.02372
-0.0234
-0.02336
-0.02372
-0.0239
-0.02444
-0.02525
-0.02525
-0.02516
-0.02534
-0.02534
-0.0248
-0.02399
-0.02282
-0.02192
-0.02075
-0.01981
-0.01968
-0.01887
-0.01788
-0.01725
-0.01685
-0.01698
-0.01671
-0.01599
-0.01631
-0.01608
-0.01545
-0.01536
-0.01527
-0.01554
-0.015
-0.01357
-0.01276
-0.01132
-0.0106
-0.01096
-0.01123
-0.01128
-0.01096
-0.00957
-0.00952
-0.00943
-0.01006
-0.01078
-0.0115
-0.01204
-0.01222
-0.01164
-0.01168
-0.0111
-0.01042
-0.00975
-0.00997
-0.0097
-0.0097
-0.00894
-0.00773
-0.00755
-0.008
-0.00782
-0.00732
-0.00737
-0.00827
-0.00854
-0.00916
-0.01024
-0.01096
-0.0106
-0.01038
-0.01087
-0.01132
-0.01024
-0.01069
-0.0106
-0.00943
-0.00863
-0.00827
-0.00692
-0.00615
-0.00566
-0.00521
-0.00548
-0.00503
-0.00494
-0.00485
-0.00521
-0.00521
-0.00512
-0.0062
-0.00647
-0.00674
-0.00728
-0.00773
-0.00791
-0.00719
-0.00737
-0.008
-0.00863
-0.00894
-0.00952
-0.0097
-0.0097
-0.00845
-0.00836
-0.0088
-0.00898
-0.0088
-0.0088
-0.00898
-0.00916
-0.00966
-0.01006
-0.00952
-0.0088
-0.00818
-0.00898
-0.00952
-0.01015
-0.01105
-0.0115
-0.01119
-0.01096
-0.01042
-0.01096
-0.01119
-0.01119
-0.01164
-0.01195
-0.01168
-0.0106
-0.01051
-0.01033
-0.01033
-0.01083
-0.01092
-0.01078
-0.01015
-0.00952
-0.00925
-0.00898
-0.00966
-0.00997
-0.01024
-0.01087
-0.01096
-0.01226
-0.01204
-0.01253
-0.01132
-0.01092
-0.01069
-0.00966
-0.01024
-0.00979
-0.0106
-0.0106
-0.01078
-0.01186
-0.01186
-0.01105
-0.01056
-0.01024
-0.00988
-0.00934
-0.00988
-0.01006
-0.01024
-0.00984
-0.01042
-0.0097
-0.00889
-0.0084
-0.00831
-0.00845
-0.00863
-0.00719
-0.00669
-0.00701
-0.00719
-0.00719
-0.00719
-0.00732
-0.00773
-0.00782
-0.00746
-0.00665
-0.00683
-0.00665
-0.00732
-0.00746
-0.00687
-0.00683
-0.00719
-0.00719
-0.00773
-0.00755
-0.00737
-0.00791
-0.00791
-0.0084
-0.00809
-0.00809
-0.008
-0.0084
-0.00863
-0.00925
-0.00916
-0.00952
-0.00979
-0.00988
-0.00925
-0.00939
-0.00934
-0.00872
-0.00791
-0.00755
-0.00696
-0.00629
-0.00588
-0.00624
-0.00544
-0.0044
-0.00431
-0.00467
-0.00503
-0.00548
-0.00629
-0.00755
-0.00809
-0.00737
-0.00746
-0.00701
-0.0071
-0.00615
-0.00683
-0.00737
-0.00701
-0.00755
-0.00791
-0.00854
-0.00898
-0.00943
-0.00925
-0.00912
-0.00943
-0.00867
-0.00831
-0.00809
-0.00827
-0.00925
-0.00952
-0.01002
-0.00952
-0.0097
-0.00988
-0.01024
-0.01024
-0.00943
-0.00782
-0.00629
-0.00544
-0.00467
-0.00521
-0.00544
-0.00467
-0.00436
-0.00467
-0.00566
-0.00638
-0.00692
-0.00773
-0.00809
-0.00943
-0.00934
-0.00872
-0.00809
-0.00782
-0.00773
-0.00719
-0.0071
-0.00674
-0.00656
-0.00719
-0.00786
-0.00818
-0.00809
-0.00845
-0.0088
-0.0097
-0.01123
-0.0115
-0.01123
-0.01132
-0.01042
-0.00925
-0.00845
-0.00692
-0.00575
-0.00544
-0.00602
-0.00629
-0.00692
-0.00827
-0.01042
-0.01128
-0.01195
-0.01294
-0.0142
-0.01393
-0.01397
-0.0124
-0.01119
-0.00979
-0.00885
-0.00898
-0.0097
-0.01078
-0.01271
-0.0142
-0.01563
-0.01671
-0.01725
-0.01712
-0.01635
-0.01536
-0.01411
-0.01078
-0.00611
-0.00153
0.00252
0.00584
0.00822
0.00943
0.01024
0.01078
0.0115
0.0124
0.0133
0.01276
0.0133
0.01438
0.01577
0.01725
0.01815
0.01734
0.01779
0.01761
0.01815
0.01914
0.01986
0.02022
0.01968
0.02044
0.02138
0.02156
0.02102
0.02161
0.02084
0.02031
0.01896
0.01788
0.0168
0.01473
0.01312
0.01222
0.01024
0.00845
0.00719
0.00557
0.00458
0.0035
0.00252
0.0018
0.00081
-0.00198
-0.00368
-0.00584
-0.00786
-0.00925
-0.00984
-0.01056
-0.01146
-0.01069
-0.01195
-0.0124
-0.01222
-0.01168
-0.01195
-0.01141
-0.01222
-0.01393
-0.01599
-0.01716
-0.01828
-0.01797
-0.01788
-0.01788
-0.01743
-0.01752
-0.01797
-0.01846
-0.01959
-0.01887
-0.01815
-0.01725
-0.01599
-0.01563
-0.01527
-0.01563
-0.01617
-0.0168
-0.01739
-0.01833
-0.01815
-0.01752
-0.01685
-0.01644
-0.01658
-0.01743
-0.0186
-0.01896
-0.01954
-0.02048
-0.02165
-0.02264
-0.02269
-0.02372
-0.0239
-0.02457
-0.02417
-0.0234
-0.02309
-0.02354
-0.02453
-0.02507
-0.02507
-0.02534
-0.02713
-0.02785
-0.02992
-0.03432
-0.03944
-0.04627
-0.05552
-0.06685
-0.08077
-0.09676
-0.11334
-0.12992
-0.14555
-0.15741
-0.16765
-0.17268
-0.17421
-0.17196
-0.16693
-0.15741
-0.1416
-0.12044
-0.0947
-0.06779
-0.04133
-0.0142
0.01258
0.0407
0.07475
0.11626
0.16298
0.21581
0.27789
0.34644
0.41922
0.49307
0.55803
0.60772
0.64433
0.66639
0.66863
0.65102
0.61634
0.56908
0.50763
0.44078
0.36971
0.30148
0.24097
0.18778
0.14232
0.10656
0.08041
0.06343
0.05256
0.0442
0.03827
0.03167
0.02507
0.02004
0.01599
0.01249
0.00827
0.00031
-0.00912
-0.01923
-0.02695
-0.0336
-0.03823
-0.04438
-0.04977
-0.05534
-0.05912
-0.0611
-0.06298
-0.06523
-0.06649
-0.06581
-0.0659
-0.06662
-0.06738
-0.06756
-0.06765
-0.06783
-0.06882
-0.07017
-0.07215
-0.07367
-0.07592
-0.07691
-0.07691
-0.07718
-0.07646
-0.07695
-0.07718
-0.0779
-0.07861
-0.07987
-0.08041
-0.0805
-0.0814
-0.08239
-0.08248
-0.08212
-0.08136
-0.0796
-0.07844
-0.07704
-0.07614
-0.07655
-0.07691
-0.07673
-0.07646
-0.07682
-0.07646
-0.07691
-0.07592
-0.07435
-0.07358
-0.07277
-0.07224
-0.07188
-0.07188
-0.07075
-0.07098
-0.07161
-0.07188
-0.07286
-0.07277
-0.0726
-0.0726
-0.07233
-0.0726
-0.07331
-0.07322
-0.07331
-0.07188
-0.06999
-0.06738
-0.06514
-0.06379
-0.06321
-0.06145
-0.0602
-0.05831
-0.05642
-0.05561
-0.05552
-0.05588
-0.05588
-0.05552
-0.05526
-0.05481
-0.05427
-0.05283
-0.0531
-0.05301
-0.05283
-0.05238
-0.05211
-0.05121
-0.05148
-0.05166
-0.05157
-0.05139
-0.05067
-0.05013
-0.0495
-0.04924
-0.04816
-0.04753
-0.0469
-0.04672
-0.04654
-0.04546
-0.04429
-0.04263
-0.04205
-0.0407
-0.03935
-0.03769
-0.03666
-0.03558
-0.03562
-0.03486
-0.03468
-0.03369
-0.03414
-0.03378
-0.03387
-0.03378
-0.03378
-0.03284
-0.03284
-0.03302
-0.03176
-0.03167
-0.03163
-0.03163
-0.02992
-0.02902
-0.02821
-0.02821
-0.0274
-0.0265
-0.02695
-0.02695
-0.02659
-0.02641
-0.02507
-0.0239
-0.02201
-0.02197
-0.02084
-0.01923
-0.01716
-0.01402
-0.01276
-0.01141
-0.01114
-0.00997
-0.00952
-0.00863
-0.00876
-0.00827
-0.00701
-0.0053
-0.00359
-0.00279
-0.00225
-0.00252
-0.00207
-0.00121
-9.00E-05
0.00031
0.00099
0.00184
0.00323
0.00449
0.0062
0.00728
0.00925
0.01114
0.01366
0.0159
0.01851
0.02156
0.0248
0.02682
0.02907
0.03109
0.03324
0.03437
0.03648
0.03935
0.04178
0.04322
0.04483
0.04632
0.04834
0.0504
0.05274
0.05391
0.05543
0.05597
0.05678
0.05714
0.05786
0.05871
0.05853
0.0593
0.06002
0.06168
0.0624
0.06325
0.06505
0.06743
0.06864
0.07026
0.07143
0.07269
0.0734
0.07385
0.0739
0.07367
0.07358
0.07286
0.07206
0.0712
0.07152
0.0708
0.07008
0.06864
0.06729
0.06635
0.06451
0.06325
0.06258
0.06074
0.05822
0.05517
0.05207
0.04744
0.04384
0.03953
0.03657
0.03306
0.02942
0.02606
0.02219
0.01878
0.01518
0.01155
0.00732
0.00332
0.00031
-0.00261
-0.00548
-0.0084
-0.01168
-0.01581
-0.01923
-0.02309
-0.02695
-0.03091
-0.03468
-0.03859
-0.0411
-0.0429
-0.04447
-0.04672
-0.04843
-0.0504
-0.05274
-0.05481
-0.05526
-0.05674
-0.05849
-0.0602
-0.06127
-0.06285
-0.06406
-0.06541
-0.06734
-0.06792
-0.06887
-0.06981
-0.06972
-0.06945
-0.07008
-0.06981
-0.0703
-0.07089
-0.0717
-0.07156
-0.0721
-0.07336
-0.07444
-0.07466
-0.07578
-0.07601
-0.07619
-0.07637
-0.0779
-0.07799
-0.07853
-0.07853
-0.07861
-0.07781
-0.07691
-0.07632
-0.07691
-0.07655
-0.07596
-0.07493
-0.07349
-0.0726
-0.07233
-0.07224
-0.07224
-0.07188
-0.07116
-0.07188
-0.07242
-0.07331
-0.07439
-0.07313
-0.07295
-0.07233
-0.07125
-0.07035
-0.06954
-0.06869
-0.06828
-0.06779
-0.06685
-0.06631
-0.06554
-0.06532
-0.06415
-0.0646
-0.06532
-0.06577
-0.06649
-0.06729
-0.06756
-0.06747
-0.0672
-0.06649
-0.06649
-0.06631
-0.06559
-0.06482
-0.06379
-0.06231
-0.06154
-0.06163
-0.0611
-0.06002
-0.05894
-0.05889
-0.05876
-0.05876
-0.05876
-0.05907
-0.05975
-0.05948
-0.06002
-0.06011
-0.06002
-0.05966
-0.05912
-0.0575
-0.0566
-0.0557
-0.05543
-0.05552
-0.05588
-0.05606
-0.05611
-0.05534
-0.05476
-0.05427
-0.05409
-0.05481
-0.05499
-0.05552
-0.05561
-0.05624
-0.05548
-0.05463
-0.05382
-0.0531
-0.05216
-0.05157
-0.05067
-0.04924
-0.04942
-0.04968
-0.04915
-0.04834
-0.04685
-0.04618
-0.04591
-0.04528
-0.04402
-0.04331
-0.04308
-0.04434
-0.04537
-0.04582
-0.04636
-0.04663
-0.04569
-0.04569
-0.04474
-0.04483
-0.04438
-0.04375
-0.04313
-0.04169
-0.04061
-0.04048
-0.03917
-0.03863
-0.03738
-0.0363
-0.03504
-0.03405
-0.03432
-0.03504
-0.03643
-0.03738
-0.03756
-0.03711
-0.03747
-0.03594
-0.03585
-0.03531
-0.03486
-0.03378
-0.03243
-0.03181
-0.03284
-0.03369
-0.03378
-0.03401
-0.03419
-0.0345
-0.03585
-0.03558
-0.0363
-0.03706
-0.03724
-0.03729
-0.03675
-0.03625
-0.03598
-0.03657
-0.03576
-0.03464
-0.03342
-0.03127
-0.0292
-0.02821
-0.02767
-0.02615
-0.0257
-0.02556
-0.02588
-0.02637
-0.02713
-0.02803
-0.02844
-0.02848
-0.02812
-0.02808
-0.02803
-0.02745
-0.02767
-0.02758
-0.02695
-0.02709
-0.027
-0.02713
-0.02731
-0.02785
-0.02848
-0.02857
-0.02794
-0.0274
-0.02722
-0.02718
-0.02659
-0.02507
-0.02471
-0.02453
-0.02471
-0.02354
-0.02269
-0.02138
-0.02179
-0.0221
-0.02165
-0.02219
-0.02273
-0.02462
-0.02534
-0.02615
-0.0265
-0.02588
-0.02534
-0.0248
-0.02484
-0.02516
-0.0248
-0.02511
-0.02489
-0.02471
-0.02511
-0.02579
-0.02561
-0.02534
-0.02462
-0.02394
-0.02354
-0.02228
-0.02201
-0.02156
-0.0221
-0.02174
-0.02138
-0.02102
-0.02084
-0.02111
-0.02031
-0.01936
-0.0186
-0.01824
-0.01815
-0.01833
-0.01905
-0.01905
-0.01941
-0.02044
-0.02084
-0.02031
-0.02093
-0.0212
-0.02228
-0.02291
-0.023
-0.023
-0.0221
-0.02318
-0.02318
-0.02354
-0.02269
-0.02102
-0.02031
-0.01941
-0.01959
-0.01896
-0.01842
-0.01878
-0.01905
-0.0195
-0.01959
-0.0199
-0.01995
-0.01959
-0.0186
-0.01959
-0.02066
-0.02048
-0.02116
-0.02093
-0.02138
-0.02026
-0.01959
-0.019
-0.01837
-0.01959
-0.01977
-0.02017
-0.02075
-0.02013
-0.01995
-0.02134
-0.02228
-0.02228
-0.02219
-0.02174
-0.0217
-0.02156
-0.02084
-0.02048
-0.01941
-0.01905
-0.01833
-0.01752
-0.01725
-0.0159
-0.01599
-0.01599
-0.01599
-0.01635
-0.01635
-0.01716
-0.01828
-0.01977
-0.02093
-0.02156
-0.02102
-0.02102
-0.02039
-0.01981
-0.01923
-0.01837
-0.0177
-0.01761
-0.01635
-0.01698
-0.01559
-0.01563
-0.0159
-0.01523
-0.01563
-0.01545
-0.01635
-0.01635
-0.01671
-0.01635
-0.01608
-0.01599
-0.01545
-0.01545
-0.01429
-0.01402
-0.01321
-0.01258
-0.0124
-0.01069
-0.01132
-0.01159
-0.01186
-0.01222
-0.01294
-0.01352
-0.01438
-0.01527
-0.01509
-0.01473
-0.01491
-0.01415
-0.0133
-0.01334
-0.01312
-0.0124
-0.01078
-0.0106
-0.01006
-0.00988
-0.01033
-0.01051
-0.01096
-0.01078
-0.01042
-0.0097
-0.00827
-0.00737
-0.00728
-0.00791
-0.00894
-0.00791
-0.00773
-0.00683
-0.00629
-0.00485
-0.0035
-0.00234
-0.00198
-0.00162
-0.00198
-0.00279
-0.00395
-0.00494
-0.00503
-0.00431
-0.00404
-0.0044
-0.00481
-0.00539
-0.00629
-0.00665
-0.00732
-0.00692
-0.00701
-0.00773
-0.00809
-0.00845
-0.00961
-0.01006
-0.01042
-0.01087
-0.01096
-0.01024
-0.00827
-0.00701
-0.00557
-0.00512
-0.00499
-0.00494
-0.00503
-0.00696
-0.00872
-0.00988
-0.01087
-0.01047
-0.01096
-0.0111
-0.00979
-0.00827
-0.00593
-0.00256
0.00117
0.00674
0.01168
0.0159
0.02031
0.02251
0.02417
0.02552
0.02722
0.02767
0.02686
0.02606
0.02561
0.02623
0.02606
0.02713
0.02826
0.02839
0.0283
0.02929
0.0292
0.02992
0.03037
0.03127
0.03136
0.03199
0.03302
0.03324
0.03306
0.03181
0.03131
0.03019
0.03073
0.03163
0.03118
0.02893
0.02641
0.02462
0.02219
0.01963
0.01599
0.0133
0.01029
0.00791
0.00512
0.00288
0.00108
-0.0009
-0.00252
-0.00323
-0.00445
-0.00575
-0.00544
-0.00485
-0.00288
-0.00117
0.00054
0.00162
0.00261
0.00216
0.00189
0.00117
0.00054
-0.00108
-0.00135
-0.00216
-0.00216
-0.00202
-0.00261
-0.00288
-0.00261
-0.00225
-0.0027
-0.00252
-0.00216
-0.00198
-0.00216
-0.0018
-0.00108
-0.00076
-0.00072
-0.00162
-0.00274
-0.00288
-0.00279
-0.00288
-0.00364
-0.00449
-0.00521
-0.00548
-0.00548
-0.00615
-0.00629
-0.00575
-0.00544
-0.00467
-0.00485
-0.00575
-0.00521
-0.00503
-0.00485
-0.00494
-0.00575
-0.00791
-0.00952
-0.0102
-0.01195
-0.01321
-0.01509
-0.01653
-0.01743
-0.01815
-0.01797
-0.01846
-0.02057
-0.0248
-0.03046
-0.03967
-0.05139
-0.06523
-0.08028
-0.09533
-0.11015
-0.12426
-0.1371
-0.14896
-0.15701
-0.15957
-0.15786
-0.15346
-0.14537
-0.13194
-0.11339
-0.08967
-0.06334
-0.03783
-0.0115
0.01581
0.04295
0.07233
0.10862
0.15242
0.1991
0.25444
0.31805
0.38589
0.45678
0.5247
0.57861
0.61832
0.64428
0.65327
0.64294
0.61634
0.57546
0.52164
0.45911
0.39245
0.32668
0.26702
0.2141
0.16864
0.13122
0.10256
0.0832
0.06932
0.06056
0.05337
0.04726
0.04092
0.03589
0.0319
0.02848
0.02547
0.02044
0.0133
0.00467
-0.00305
-0.00916
-0.01366
-0.01779
-0.0217
-0.02695
-0.03055
-0.03306
-0.03558
-0.0372
-0.03863
-0.0407
-0.0425
-0.04322
-0.04295
-0.04205
-0.04128
-0.04016
-0.04025
-0.04043
-0.0411
-0.0425
-0.04272
-0.04384
-0.04402
-0.04465
-0.0451
-0.04636
-0.04748
-0.04888
-0.04924
-0.04924
-0.04959
-0.04906
-0.04924
-0.0495
-0.05009
-0.04959
-0.04906
-0.04847
-0.04798
-0.04654
-0.04519
-0.04411
-0.04295
-0.04308
-0.04331
-0.04313
-0.04349
-0.04375
-0.04214
-0.04151
-0.04115
-0.03998
-0.03989
-0.03935
-0.03769
-0.03756
-0.03724
-0.03594
-0.03558
-0.03513
-0.03468
-0.03432
-0.03405
-0.03396
-0.03342
-0.03351
-0.03396
-0.03477
-0.0345
-0.03432
-0.03324
-0.03261
-0.03252
-0.03243
-0.03104
-0.03019
-0.02938
-0.02871
-0.02857
-0.02776
-0.02785
-0.02713
-0.02677
-0.02713
-0.02754
-0.02785
-0.02704
-0.0265
-0.02583
-0.0265
-0.02637
-0.02606
-0.02588
-0.02601
-0.02534
-0.02498
-0.02448
-0.02421
-0.02435
-0.02381
-0.02327
-0.02246
-0.02183
-0.02201
-0.02138
-0.02084
-0.02004
-0.01986
-0.01878
-0.01842
-0.01833
-0.01824
-0.01815
-0.01779
-0.01721
-0.01554
-0.01366
-0.01267
-0.01186
-0.01078
-0.0106
-0.01042
-0.00975
-0.0097
-0.00916
-0.0088
-0.00845
-0.00773
-0.00737
-0.00683
-0.00602
-0.00422
-0.00305
-0.00198
-0.00126
-0.00036
0.00081
0.00135
0.00198
0.00189
0.0027
0.0027
0.00288
0.00431
0.00449
0.00503
0.00503
0.00454
0.00544
0.00674
0.008
0.00898
0.01051
0.01168
0.01204
0.0133
0.01545
0.01716
0.01869
0.02093
0.023
0.02408
0.02484
0.02655
0.02911
0.03073
0.03288
0.03432
0.03585
0.03684
0.03747
0.03756
0.03836
0.03971
0.04088
0.04295
0.04456
0.04582
0.0473
0.04897
0.05139
0.05265
0.05391
0.05543
0.05633
0.0588
0.0611
0.06253
0.06419
0.06559
0.06702
0.06774
0.06864
0.0703
0.07152
0.07304
0.07493
0.07655
0.07781
0.07897
0.07888
0.07844
0.08014
0.0814
0.08194
0.08266
0.0832
0.08463
0.08553
0.08733
0.08841
0.0885
0.08931
0.09056
0.09173
0.09218
0.09362
0.09416
0.09479
0.09524
0.09488
0.09483
0.09452
0.09474
0.09326
0.09173
0.08949
0.08769
0.08616
0.08383
0.08189
0.07942
0.07691
0.07385
0.07089
0.06774
0.065
0.06127
0.05768
0.05391
0.04942
0.04564
0.04088
0.0358
0.03127
0.02821
0.02534
0.02066
0.01599
0.01204
0.00845
0.00467
0.00099
-0.00234
-0.0053
-0.00898
-0.01096
-0.01276
-0.01433
-0.01626
-0.01842
-0.01959
-0.02111
-0.02228
-0.02462
-0.02695
-0.02929
-0.03145
-0.03288
-0.0336
-0.0345
-0.03648
-0.03836
-0.03958
-0.03971
-0.04061
-0.04133
-0.04232
-0.04331
-0.0447
-0.04569
-0.04672
-0.04726
-0.04739
-0.04852
-0.04861
-0.04888
-0.04852
-0.04888
-0.04933
-0.04959
-0.04959
-0.04986
-0.04924
-0.04888
-0.04852
-0.0487
-0.04852
-0.04852
-0.04906
-0.04897
-0.04856
-0.04816
-0.04748
-0.04744
-0.04861
-0.0487
-0.04879
-0.0487
-0.0478
-0.04757
-0.04708
-0.04663
-0.04614
-0.04528
-0.04438
-0.04331
-0.04331
-0.04295
-0.04277
-0.04349
-0.04313
-0.04366
-0.04322
-0.04286
-0.0416
-0.0425
-0.04232
-0.04187
-0.04187
-0.04079
-0.04115
-0.04097
-0.04025
-0.03854
-0.03818
-0.03783
-0.03747
-0.03657
-0.03648
-0.03693
-0.0363
-0.03576
-0.03553
-0.03666
-0.03666
-0.03688
-0.03738
-0.03791
-0.03774
-0.03863
-0.03769
-0.03733
-0.03639
-0.03504
-0.03432
-0.03324
-0.03199
-0.0319
-0.03145
-0.03091
-0.03064
-0.03046
-0.03145
-0.03252
-0.03324
-0.03311
-0.03356
-0.03351
-0.03266
-0.03199
-0.03145
-0.031
-0.02996
-0.02817
-0.02686
-0.0265
-0.02579
-0.02552
-0.02489
-0.02498
-0.02606
-0.02655
-0.02646
-0.02615
-0.02588
-0.02641
-0.02731
-0.02749
-0.0283
-0.02848
-0.02817
-0.02758
-0.02668
-0.02597
-0.02489
-0.02381
-0.02269
-0.02138
-0.0199
-0.01833
-0.01824
-0.01797
-0.01815
-0.01941
-0.01914
-0.01851
-0.01779
-0.01725
-0.01563
-0.01478
-0.01455
-0.01491
-0.01545
-0.01577
-0.01509
-0.01433
-0.01366
-0.01303
-0.01289
-0.01294
-0.01285
-0.01312
-0.01357
-0.01379
-0.0133
-0.01204
-0.0124
-0.01249
-0.01276
-0.01307
-0.01285
-0.01267
-0.0124
-0.01177
-0.01177
-0.01208
-0.01235
-0.01222
-0.01199
-0.01141
-0.01038
-0.00943
-0.00809
-0.00827
-0.00827
-0.00952
-0.0111
-0.01195
-0.01186
-0.01096
-0.01042
-0.00984
-0.00907
-0.00845
-0.008
-0.00719
-0.00566
-0.00476
-0.00463
-0.00431
-0.00395
-0.00467
-0.00539
-0.0062
-0.00665
-0.00665
-0.00606
-0.00701
-0.00701
-0.00719
-0.00701
-0.00521
-0.00436
-0.00368
-0.00314
-0.004
-0.00467
-0.00629
-0.00638
-0.00665
-0.00696
-0.00669
-0.00575
-0.00521
-0.00467
-0.00476
-0.00485
-0.00494
-0.00467
-0.00485
-0.00467
-0.00431
-0.00341
-0.00305
-0.00279
-0.00305
-0.0027
-0.00234
-0.00265
-0.00288
-0.00332
-0.00337
-0.00332
-0.00323
-0.00314
-0.00247
-0.00288
-0.00252
-0.00261
-0.0018
-0.00108
-0.00108
-0.00036
0.00031
0.00162
0.00225
0.00319
0.00296
0.00216
0.0018
0.00126
0.0013
0.00144
0.00153
0.00184
0.00252
0.00198
0.00117
0.00148
0.00108
-0.00036
-0.0004
0.00018
0.00099
0.0018
0.00288
0.00377
0.00494
0.00539
0.00521
0.0044
0.00332
0.00207
0.00225
0.00238
0.00216
0.00256
0.00243
0.00144
0.00031
-0.00085
-0.00072
-0.00117
-0.00126
-0.00049
-0.0009
-0.0018
-0.00162
-0.00036
-0.00036
0.00027
-0.00045
-0.00085
-0.00198
-0.00234
-0.00171
-0.00207
-0.00189
-0.00207
-0.00189
-0.00139
-0.0004
-0.00027
-0.00045
-0.00081
-0.00054
0.00018
0.00018
0.00018
0.00027
0.00054
0.0009
0.00081
0.00018
-0.00022
-0.00117
-0.00072
-0.00013
9.00E-05
0.00027
0.00022
0.00108
0.00108
0.00189
0.00252
0.00377
0.00449
0.00512
0.00593
0.00728
0.0088
0.00827
0.00818
0.00683
0.00606
0.00593
0.00629
0.00629
0.00544
0.00494
0.00539
0.00606
0.00606
0.00557
0.00503
0.00512
0.00656
0.00746
0.00629
0.00602
0.00521
0.00472
0.00323
0.00274
0.00175
0.00058
0.00126
0.00108
0.00108
0.00054
0.00027
0.00139
0.00261
0.00305
0.00377
0.0044
0.00458
0.00476
0.00368
0.00252
0.00171
0.00081
9.00E-05
0.00031
9.00E-05
0.0004
0.00031
9.00E-05
0.00027
-9.00E-05
-4.00E-05
-0.00027
0.00031
-0.00027
0.00126
0.0027
0.00395
0.00503
0.00431
0.00386
0.00377
0.00422
0.00377
0.00377
0.00305
0.00422
0.00458
0.00449
0.00508
0.00521
0.00503
0.00521
0.00449
0.00413
0.00521
0.00544
0.00593
0.00593
0.00696
0.00674
0.00683
0.00638
0.00669
0.00611
0.00575
0.00606
0.00638
0.00602
0.00512
0.0035
0.0027
0.00252
0.00305
0.00368
0.00395
0.00368
0.00422
0.00359
0.00341
0.00427
0.00485
0.00449
0.00404
0.00395
0.00288
0.00261
0.0018
0.00234
0.00341
0.00413
0.00521
0.00593
0.00602
0.0062
0.00629
0.00638
0.00705
0.00647
0.00588
0.0049
0.00449
0.00323
0.00413
0.0044
0.00535
0.00557
0.00458
0.00535
0.00521
0.00418
0.00305
0.00171
-0.00018
-0.00162
-0.00216
-0.00314
-0.00225
0
0.00252
0.00737
0.01312
0.0186
0.02408
0.02893
0.03369
0.0376
0.04007
0.04106
0.04088
0.04057
0.03971
0.03899
0.03881
0.03774
0.03733
0.03756
0.03756
0.03809
0.03899
0.03953
0.04025
0.04007
0.0398
0.04007
0.04034
0.04043
0.0407
0.04223
0.04295
0.04443
0.0451
0.04546
0.04573
0.04546
0.04546
0.04402
0.04304
0.04061
0.03868
0.03585
0.03284
0.03046
0.02839
0.02623
0.02462
0.02246
0.02066
0.01833
0.01635
0.01496
0.015
0.01518
0.01545
0.01545
0.01581
0.01635
0.01581
0.01509
0.01455
0.01563
0.01455
0.01303
0.01222
0.01204
0.01168
0.01069
0.00988
0.00943
0.00898
0.00845
0.00863
0.00854
0.00889
0.00952
0.00952
0.00988
0.01078
0.0128
0.0133
0.01312
0.01294
0.01339
0.0124
0.01231
0.0115
0.01204
0.01294
0.01298
0.01222
0.01123
0.01006
0.0097
0.01024
0.01042
0.0097
0.01029
0.01096
0.01123
0.01231
0.01262
0.01384
0.01455
0.01491
0.01424
0.01348
0.0137
0.01258
0.01096
0.00952
0.00791
0.00575
0.00449
0.00305
0.00162
-0.00027
-0.00404
-0.00997
-0.01869
-0.02911
-0.04169
-0.0566
-0.07224
-0.08877
-0.10512
-0.11985
-0.13279
-0.14106
-0.14591
-0.14685
-0.14339
-0.13683
-0.1256
-0.10808
-0.08549
-0.05822
-0.03118
-0.00341
0.02561
0.05395
0.08302
0.11662
0.15651
0.20157
0.2539
0.31554
0.38382
0.4548
0.52614
0.58741
0.63557
0.67007
0.68903
0.68795
0.66863
0.63251
0.58229
0.51931
0.44981
0.37717
0.30817
0.24959
0.19874
0.1557
0.11967
0.09232
0.0752
0.06334
0.0549
0.04798
0.04331
0.03863
0.03405
0.03145
0.02965
0.02875
0.02489
0.01743
0.00952
0.00314
-0.0018
-0.00544
-0.00997
-0.01451
-0.01842
-0.02138
-0.02291
-0.02453
-0.02623
-0.02623
-0.02673
-0.02758
-0.02749
-0.02794
-0.02844
-0.02929
-0.03019
-0.03064
-0.03131
-0.03342
-0.03432
-0.03423
-0.0345
-0.03513
-0.03576
-0.03612
-0.03666
-0.03809
-0.03926
-0.04061
-0.04142
-0.04151
-0.04097
-0.04007
-0.03926
-0.03854
-0.03774
-0.03738
-0.03648
-0.03558
-0.03414
-0.03428
-0.03468
-0.03378
-0.0327
-0.03234
-0.03243
-0.03216
-0.0319
-0.03199
-0.03199
-0.0319
-0.03154
-0.03028
-0.02898
-0.02866
-0.02889
-0.02857
-0.02812
-0.02754
-0.02713
-0.0257
-0.02462
-0.02435
-0.02421
-0.02426
-0.02412
-0.02457
-0.02516
-0.02462
-0.02444
-0.02552
-0.02507
-0.02444
-0.02269
-0.02022
-0.01905
-0.01725
-0.01635
-0.01617
-0.01622
-0.01559
-0.01563
-0.0159
-0.01473
-0.01366
-0.0133
-0.01276
-0.01177
-0.01096
-0.01056
-0.01006
-0.00863
-0.00907
-0.00854
-0.00737
-0.00575
-0.00458
-0.00288
-0.00243
-0.00099
-0.00072
-0.0009
-0.00076
-0.00108
-0.00018
0.00139
0.00207
0.00256
0.00305
0.00328
0.0044
0.0053
0.00647
0.00642
0.00575
0.00633
0.00746
0.00809
0.008
0.00782
0.0088
0.00934
0.01047
0.0106
0.01204
0.01267
0.01384
0.01478
0.0142
0.01424
0.01491
0.01572
0.01698
0.01837
0.01941
0.02174
0.02215
0.02331
0.02471
0.0248
0.0252
0.02498
0.02466
0.02516
0.02632
0.02632
0.02677
0.02731
0.02731
0.02763
0.02875
0.03001
0.03127
0.03199
0.03401
0.03576
0.03738
0.04003
0.042
0.0425
0.04299
0.04375
0.04465
0.04564
0.04726
0.04793
0.04924
0.05139
0.05234
0.05355
0.05494
0.05615
0.05804
0.06047
0.06312
0.06523
0.06738
0.07071
0.07295
0.07484
0.07646
0.07826
0.07987
0.08145
0.08338
0.08594
0.08715
0.08868
0.08958
0.09007
0.09029
0.09209
0.09461
0.09712
0.0982
0.09874
0.09937
0.10121
0.10242
0.10314
0.10422
0.10458
0.1062
0.1071
0.10746
0.10844
0.10907
0.10961
0.11006
0.11015
0.11123
0.11159
0.11186
0.11343
0.11509
0.11599
0.11734
0.11752
0.11824
0.11797
0.11684
0.11523
0.11374
0.11213
0.11114
0.11051
0.10799
0.10602
0.10382
0.10144
0.09901
0.09551
0.09137
0.08769
0.08513
0.08176
0.07637
0.07134
0.06676
0.06253
0.05791
0.05305
0.04766
0.04331
0.03863
0.03378
0.03037
0.02632
0.02228
0.01869
0.01509
0.01231
0.00921
0.00404
0.00081
-0.00216
-0.00413
-0.00674
-0.00872
-0.01141
-0.01482
-0.01761
-0.01977
-0.02174
-0.02516
-0.02889
-0.03212
-0.03486
-0.03657
-0.03809
-0.04061
-0.04214
-0.04277
-0.04295
-0.0442
-0.04456
-0.046
-0.04672
-0.04672
-0.04757
-0.04861
-0.04959
-0.05045
-0.04995
-0.05094
-0.05202
-0.05314
-0.0535
-0.05368
-0.05319
-0.05265
-0.05337
-0.05337
-0.05319
-0.05292
-0.05256
-0.05148
-0.05058
-0.04906
-0.04897
-0.0487
-0.04825
-0.04757
-0.04569
-0.04537
-0.04546
-0.04654
-0.04654
-0.0465
-0.04591
-0.04627
-0.04618
-0.04618
-0.04636
-0.04627
-0.04654
-0.04654
-0.04627
-0.04528
-0.04393
-0.04384
-0.04331
-0.04259
-0.04205
-0.04151
-0.04169
-0.04227
-0.04313
-0.04277
-0.0429
-0.04169
-0.04079
-0.03935
-0.03827
-0.03666
-0.03607
-0.03589
-0.03576
-0.0354
-0.0354
-0.03576
-0.03576
-0.03648
-0.03715
-0.03765
-0.03881
-0.03971
-0.04057
-0.04079
-0.04061
-0.03958
-0.03791
-0.03553
-0.0336
-0.03199
-0.03091
-0.03091
-0.03001
-0.02965
-0.02983
-0.03055
-0.03091
-0.03091
-0.03037
-0.02898
-0.02871
-0.02848
-0.02857
-0.02893
-0.02853
-0.02812
-0.02808
-0.02938
-0.02951
-0.02866
-0.02803
-0.02659
-0.02556
-0.02403
-0.02318
-0.02282
-0.023
-0.02349
-0.02444
-0.02498
-0.02552
-0.02552
-0.0248
-0.02426
-0.02269
-0.02138
-0.02116
-0.02102
-0.02008
-0.01882
-0.01743
-0.01671
-0.01563
-0.01563
-0.01563
-0.015
-0.01478
-0.01442
-0.0142
-0.01455
-0.01527
-0.01545
-0.01563
-0.01563
-0.01595
-0.01563
-0.0159
-0.01617
-0.01581
-0.01438
-0.01222
-0.01132
-0.01092
-0.01024
-0.01006
-0.01033
-0.0097
-0.00943
-0.00822
-0.00845
-0.00818
-0.0075
-0.00746
-0.0075
-0.00791
-0.0071
-0.00701
-0.00665
-0.0053
-0.00377
-0.00252
-0.00117
-0.00072
-0.00198
-0.00247
-0.00305
-0.00296
-0.00377
-0.0044
-0.00445
-0.00382
-0.0044
-0.00449
-0.00386
-0.00359
-0.00292
-0.0035
-0.00373
-0.00296
-0.00225
-0.00198
-0.00099
-0.00072
0.00031
0.00198
0.00373
0.00395
0.00449
0.00431
0.00467
0.00404
0.00301
0.00292
0.00301
0.00305
0.00243
0.00252
0.00279
0.00216
0.00126
0.00054
9.00E-05
0.00031
0.00198
0.00202
0.00162
0.00072
0.0009
0.0009
0.00031
-0.00045
-0.00063
-0.00018
0.00031
0.00072
0.00126
0.00243
0.00225
0.00261
0.00359
0.00431
0.00602
0.00665
0.00647
0.00728
0.008
0.00809
0.00737
0.00746
0.00701
0.00746
0.00786
0.00791
0.00827
0.00907
0.00894
0.0097
0.01042
0.0106
0.01132
0.0106
0.01006
0.00952
0.00952
0.01006
0.00988
0.00934
0.00916
0.00889
0.00916
0.01047
0.01083
0.01042
0.01078
0.01204
0.01172
0.01231
0.01195
0.01168
0.01222
0.01294
0.01375
0.01348
0.01294
0.01231
0.01249
0.01267
0.01222
0.01222
0.0124
0.01132
0.01096
0.01006
0.0097
0.00975
0.00925
0.00943
0.0097
0.00912
0.01006
0.01042
0.01105
0.0111
0.01168
0.01155
0.0106
0.01024
0.01065
0.0106
0.00984
0.01024
0.00921
0.00827
0.00863
0.00872
0.0088
0.00827
0.008
0.0088
0.00872
0.01006
0.01042
0.01114
0.0115
0.01137
0.0115
0.01181
0.01132
0.01069
0.00988
0.00907
0.00746
0.00602
0.00593
0.00521
0.00521
0.00485
0.00557
0.00683
0.00898
0.01015
0.01132
0.01231
0.01186
0.01132
0.0115
0.01042
0.01006
0.00898
0.00737
0.00669
0.00683
0.00669
0.00606
0.00548
0.00593
0.00647
0.00669
0.00773
0.00854
0.00988
0.01078
0.01033
0.01002
0.0088
0.0088
0.00916
0.00957
0.01105
0.01159
0.01213
0.01231
0.01114
0.00988
0.00863
0.008
0.00566
0.00418
0.00382
0.00305
0.00377
0.00539
0.00629
0.00818
0.01168
0.01698
0.02219
0.02713
0.03109
0.03437
0.03576
0.03783
0.03989
0.04052
0.04115
0.0416
0.042
0.0416
0.04106
0.04057
0.04106
0.04151
0.04331
0.04366
0.04393
0.04443
0.04537
0.04672
0.04632
0.046
0.04497
0.04501
0.04389
0.04349
0.0434
0.04268
0.04097
0.04034
0.03953
0.03738
0.03603
0.03351
0.03158
0.02902
0.02704
0.02588
0.02385
0.02174
0.01959
0.01815
0.01671
0.01577
0.01491
0.01473
0.01455
0.0142
0.01393
0.01455
0.0146
0.01491
0.01473
0.01348
0.01357
0.01294
0.01262
0.01208
0.01155
0.0102
0.0097
0.00916
0.00916
0.00907
0.00934
0.00907
0.0088
0.00934
0.01024
0.01006
0.00979
0.01042
0.01047
0.01047
0.01069
0.01051
0.00898
0.00737
0.00683
0.00678
0.00737
0.00719
0.00683
0.00602
0.00575
0.00602
0.0062
0.00723
0.00755
0.00845
0.00863
0.00728
0.00719
0.00701
0.00773
0.00773
0.00719
0.00615
0.00539
0.00431
0.00391
0.00216
0.00216
0.00144
0.00031
-0.00013
-0.00063
-0.00207
-0.00445
-0.00665
-0.00916
-0.01321
-0.02004
-0.02983
-0.04061
-0.05364
-0.06837
-0.08463
-0.09991
-0.11312
-0.12417
-0.13405
-0.14209
-0.14447
-0.14205
-0.13598
-0.12444
-0.10755
-0.08553
-0.05948
-0.03163
-0.00544
0.0221
0.05126
0.08185
0.11253
0.14672
0.18742
0.23576
0.292
0.35561
0.42569
0.49541
0.561
0.6158
0.65785
0.68471
0.69001
0.67456
0.64177
0.59675
0.53889
0.46989
0.39559
0.32362
0.25858
0.2035
0.15795
0.12057
0.08967
0.0681
0.05319
0.04313
0.03558
0.03055
0.02727
0.0243
0.0221
0.02048
0.01995
0.01833
0.01447
0.0097
0.00454
0.00031
-0.00279
-0.00719
-0.01078
-0.01464
-0.01694
-0.01851
-0.02017
-0.02188
-0.02228
-0.02345
-0.02498
-0.02552
-0.02606
-0.02556
-0.0248
-0.02426
-0.02363
-0.0239
-0.02399
-0.02489
-0.02453
-0.02516
-0.02579
-0.02556
-0.02615
-0.02606
-0.0265
-0.02727
-0.02821
-0.02902
-0.02978
-0.031
-0.03127
-0.03199
-0.03176
-0.03199
-0.03163
-0.03055
-0.0296
-0.02893
-0.02713
-0.02695
-0.0265
-0.0257
-0.02632
-0.02623
-0.02623
-0.02677
-0.02695
-0.02695
-0.02677
-0.0261
-0.02588
-0.02403
-0.02354
-0.02327
-0.02269
-0.0221
-0.0212
-0.01977
-0.01833
-0.01703
-0.01608
-0.01455
-0.01325
-0.01276
-0.01231
-0.01159
-0.0111
-0.01141
-0.01222
-0.01402
-0.01505
-0.01402
-0.01168
-0.01002
-0.00863
-0.00755
-0.00737
-0.00647
-0.00539
-0.00431
-0.00386
-0.00395
-0.00341
-0.00305
-0.00243
-0.0027
-0.00323
-0.00261
-0.0018
-0.00099
-0.00126
-0.00162
-0.00162
-0.00126
-0.00027
0.00031
0.00171
0.00265
0.00368
0.00395
0.00422
0.00521
0.00521
0.00575
0.00584
0.00656
0.00683
0.0075
0.00737
0.00737
0.00647
0.00584
0.00683
0.00827
0.00988
0.01087
0.01249
0.01384
0.01635
0.01716
0.0186
0.01923
0.02013
0.01995
0.02013
0.01986
0.01905
0.01959
0.01995
0.02039
0.02066
0.02161
0.02201
0.0221
0.02331
0.02435
0.02516
0.02534
0.02632
0.02821
0.03019
0.03234
0.0336
0.0345
0.03567
0.03742
0.03814
0.03881
0.03926
0.0389
0.03872
0.03989
0.04142
0.04196
0.04277
0.0442
0.04564
0.04632
0.04771
0.04834
0.04995
0.05166
0.05305
0.05445
0.05499
0.05687
0.05948
0.0611
0.06289
0.06487
0.06658
0.06864
0.07134
0.0743
0.07677
0.07835
0.08032
0.08239
0.08544
0.08796
0.08949
0.09209
0.09344
0.09452
0.09524
0.0956
0.09587
0.09667
0.09807
0.09973
0.10144
0.10377
0.10458
0.10638
0.10817
0.10957
0.11087
0.11267
0.11356
0.11478
0.11613
0.11761
0.1186
0.11923
0.11923
0.11873
0.1186
0.11932
0.11914
0.11994
0.12075
0.12201
0.12206
0.12147
0.1221
0.12183
0.12138
0.12057
0.11949
0.11873
0.11756
0.1159
0.11339
0.11222
0.10889
0.10584
0.10278
0.09883
0.09434
0.08985
0.08553
0.08032
0.07655
0.073
0.06837
0.06307
0.05894
0.05449
0.04915
0.04358
0.03949
0.03482
0.03091
0.02615
0.02129
0.01721
0.01244
0.00845
0.0044
0.00211
-0.00126
-0.00395
-0.00584
-0.00845
-0.01006
-0.01235
-0.01438
-0.01563
-0.01725
-0.01959
-0.02282
-0.02462
-0.02749
-0.03001
-0.03284
-0.03522
-0.03738
-0.03989
-0.04232
-0.04358
-0.0451
-0.04717
-0.04762
-0.04879
-0.04906
-0.04897
-0.04915
-0.04977
-0.04977
-0.0495
-0.04973
-0.05085
-0.05103
-0.05211
-0.05301
-0.05364
-0.05391
-0.05463
-0.05543
-0.05588
-0.05687
-0.05696
-0.05624
-0.05588
-0.05606
-0.05543
-0.05508
-0.05413
-0.05332
-0.05319
-0.05202
-0.05247
-0.05337
-0.05418
-0.05508
-0.05476
-0.05552
-0.05526
-0.05534
-0.0557
-0.05436
-0.05409
-0.0535
-0.05225
-0.05211
-0.05121
-0.05022
-0.04897
-0.0478
-0.04757
-0.04852
-0.04959
-0.05022
-0.05022
-0.04959
-0.0487
-0.04924
-0.04915
-0.04852
-0.04829
-0.04789
-0.04847
-0.04834
-0.04744
-0.04798
-0.04798
-0.04717
-0.04569
-0.04411
-0.04384
-0.04304
-0.04223
-0.04169
-0.04075
-0.04079
-0.04133
-0.04155
-0.04223
-0.0425
-0.04205
-0.04169
-0.04115
-0.04106
-0.03998
-0.03944
-0.03845
-0.03738
-0.03576
-0.03441
-0.0332
-0.03306
-0.03356
-0.0345
-0.03594
-0.03702
-0.03791
-0.03827
-0.03845
-0.03917
-0.03863
-0.03872
-0.03706
-0.03553
-0.03423
-0.03378
-0.03288
-0.03252
-0.03082
-0.03055
-0.02992
-0.02947
-0.02938
-0.02947
-0.0301
-0.03019
-0.03001
-0.03109
-0.03118
-0.03154
-0.03145
-0.03145
-0.03131
-0.03037
-0.02947
-0.02812
-0.02731
-0.02668
-0.02641
-0.02632
-0.02606
-0.02534
-0.0248
-0.02471
-0.02444
-0.02471
-0.02516
-0.02543
-0.02498
-0.02516
-0.02516
-0.02606
-0.0257
-0.02534
-0.02408
-0.02273
-0.02048
-0.01887
-0.01797
-0.01698
-0.0155
-0.01438
-0.01348
-0.01276
-0.01204
-0.01204
-0.0124
-0.01339
-0.01473
-0.015
-0.01527
-0.01536
-0.01464
-0.01447
-0.01455
-0.01469
-0.01491
-0.01455
-0.01429
-0.01384
-0.0133
-0.01298
-0.01276
-0.0115
-0.01033
-0.01042
-0.01078
-0.01024
-0.00898
-0.0088
-0.0097
-0.00943
-0.00952
-0.0111
-0.01096
-0.0115
-0.0115
-0.0097
-0.0088
-0.00773
-0.00728
-0.00737
-0.00755
-0.00728
-0.00755
-0.00768
-0.00845
-0.00845
-0.00952
-0.00966
-0.00943
-0.00952
-0.00876
-0.00863
-0.00854
-0.00827
-0.00737
-0.00728
-0.00791
-0.00809
-0.00831
-0.00791
-0.00755
-0.00746
-0.00629
-0.00647
-0.00755
-0.00827
-0.00858
-0.00809
-0.00692
-0.00629
-0.00624
-0.00611
-0.00584
-0.00494
-0.00472
-0.00521
-0.00494
-0.00485
-0.00431
-0.0044
-0.00521
-0.00557
-0.00593
-0.00566
-0.00629
-0.0062
-0.00701
-0.00674
-0.00651
-0.00674
-0.00629
-0.00615
-0.00593
-0.00485
-0.00359
-0.0027
-0.00193
-0.00126
-0.00081
-0.0009
-0.00108
-0.00072
-0.0009
-0.00036
-0.00117
-0.00193
-0.00252
-0.00279
-0.00288
-0.0027
-0.00359
-0.00216
-0.00144
-0.00135
-0.00126
-0.0009
-0.00054
-0.00018
0.00081
0.00045
0.00018
0.00031
0.00031
0.00036
0
-0.00063
0
0.00126
0.00211
0.0018
0.00162
0.00189
0.00261
0.00234
0.00216
0.00135
0.00126
0.00126
0.00162
0.0018
0.0018
0.0018
0.00216
0.00216
0.00144
0.00031
-0.00054
-0.00148
-0.00207
-0.00261
-0.00265
-0.00252
-0.00252
-0.00256
-0.00216
-0.00126
-0.00063
0.00031
0.00162
0.00144
0.00117
0.00144
0.0018
0.00126
0.00144
0.00216
0.00184
0.00166
0.00036
-0.00036
-0.00103
-0.00072
0.00027
0
0.00072
0.00072
0.00018
0.00031
0
-0.00121
-0.00207
-0.0027
-0.00323
-0.00395
-0.00503
-0.00562
-0.00638
-0.00575
-0.00557
-0.00494
-0.00422
-0.00413
-0.00296
-0.00153
-0.00126
-0.00135
-0.00121
-0.00036
-0.00027
0
0.00031
0.00031
0.0009
0.00144
0.00126
0.0009
0.00054
-0.00036
-0.00171
-0.00261
-0.00377
-0.00467
-0.00458
-0.00503
-0.00521
-0.00575
-0.00548
-0.00512
-0.00503
-0.00404
-0.00314
-0.00126
-0.00027
0.00126
0.00144
0.00108
0.00094
0.00081
-4.00E-05
-0.00153
-0.00279
-0.00296
-0.00404
-0.00512
-0.00647
-0.00809
-0.00898
-0.01024
-0.01042
-0.0097
-0.00773
-0.00674
-0.00485
-0.00256
-0.00027
0.00261
0.00557
0.00898
0.01276
0.01586
0.01779
0.01959
0.02165
0.02255
0.02331
0.02399
0.023
0.02282
0.02188
0.02219
0.02224
0.02246
0.02264
0.02273
0.02331
0.0239
0.02525
0.02574
0.02619
0.02601
0.02597
0.02606
0.02682
0.02839
0.02947
0.03019
0.03037
0.03028
0.03046
0.02992
0.02875
0.02623
0.02408
0.02219
0.01941
0.01734
0.01613
0.01384
0.01208
0.01065
0.00952
0.00764
0.00512
0.00292
0.00144
-0.00036
-0.00189
-0.00126
-0.0009
-0.00108
-0.00162
-0.0018
-0.00252
-0.00314
-0.00296
-0.00279
-0.00359
-0.00413
-0.00593
-0.00629
-0.00701
-0.00791
-0.00764
-0.00804
-0.00836
-0.00809
-0.00782
-0.00678
-0.00602
-0.00584
-0.00503
-0.00517
-0.00584
-0.00539
-0.00476
-0.00544
-0.00575
-0.00647
-0.00562
-0.00512
-0.00557
-0.00638
-0.00611
-0.00499
-0.00377
-0.00314
-0.00279
-0.00395
-0.00359
-0.004
-0.00395
-0.00431
-0.00521
-0.00615
-0.00701
-0.0071
-0.0071
-0.00692
-0.00719
-0.00683
-0.00696
-0.00764
-0.00898
-0.01096
-0.01258
-0.01343
-0.01438
-0.01761
-0.02156
-0.02677
-0.03459
-0.04438
-0.05678
-0.07039
-0.08481
-0.09991
-0.11541
-0.12983
-0.1425
-0.15238
-0.15777
-0.15885
-0.15588
-0.1504
-0.14097
-0.1256
-0.10494
-0.07861
-0.05085
-0.02345
0.00485
0.0327
0.06145
0.09389
0.13486
0.18113
0.23279
0.2929
0.35938
0.43072
0.50421
0.57232
0.62353
0.66064
0.68391
0.68786
0.67223
0.63907
0.59217
0.53207
0.46253
0.3902
0.31994
0.25696
0.20251
0.15597
0.11846
0.09227
0.07493
0.06384
0.05588
0.04995
0.04443
0.03989
0.03486
0.03266
0.03055
0.02677
0.02143
0.0128
0.00332
-0.00436
-0.01078
-0.01694
-0.023
-0.02839
-0.03243
-0.03549
-0.03841
-0.04043
-0.04205
-0.04456
-0.04708
-0.04771
-0.04825
-0.04843
-0.04861
-0.04897
-0.05013
-0.05103
-0.05144
-0.05238
-0.05337
-0.05427
-0.05391
-0.05445
-0.05391
-0.05409
-0.05409
-0.05409
-0.054
-0.05337
-0.05373
-0.05463
-0.05445
-0.05409
-0.05265
-0.05211
-0.05148
-0.05175
-0.05193
-0.05202
-0.05202
-0.05202
-0.0513
-0.05148
-0.05148
-0.05121
-0.05193
-0.05144
-0.05193
-0.05247
-0.05247
-0.05103
-0.04942
-0.0478
-0.04605
-0.04479
-0.04402
-0.04393
-0.04456
-0.0442
-0.04492
-0.04497
-0.04564
-0.04591
-0.04627
-0.04618
-0.04528
-0.04416
-0.04366
-0.04349
-0.04322
-0.04268
-0.04169
-0.04052
-0.03953
-0.03863
-0.03706
-0.03594
-0.03522
-0.0341
-0.03243
-0.03091
-0.0301
-0.03037
-0.03046
-0.02947
-0.02866
-0.02767
-0.02794
-0.02713
-0.02619
-0.02588
-0.0265
-0.02641
-0.02552
-0.02417
-0.023
-0.02156
-0.02048
-0.01905
-0.01905
-0.01842
-0.01851
-0.01869
-0.01905
-0.019
-0.01914
-0.01851
-0.0177
-0.0168
-0.01527
-0.01402
-0.01334
-0.01249
-0.01294
-0.01384
-0.01285
-0.01325
-0.01411
-0.01366
-0.01271
-0.01222
-0.01181
-0.01213
-0.01231
-0.01258
-0.0124
-0.01276
-0.01195
-0.01168
-0.00979
-0.00831
-0.00696
-0.00557
-0.00382
-0.00252
-0.00279
-0.00296
-0.00261
-0.00243
-0.00099
0.00027
-0.00018
-4.00E-05
0.00072
0.00216
0.00243
0.00288
0.00323
0.00431
0.00593
0.00665
0.00809
0.0097
0.01159
0.0124
0.01217
0.01231
0.01258
0.01348
0.01505
0.01604
0.01698
0.01878
0.02004
0.01981
0.02071
0.0212
0.02084
0.02165
0.02318
0.02453
0.02615
0.02785
0.02965
0.03306
0.0363
0.03953
0.04241
0.04555
0.04784
0.05031
0.05171
0.05346
0.05534
0.05705
0.05849
0.05975
0.06145
0.06298
0.06451
0.06613
0.06765
0.06828
0.07008
0.0708
0.0717
0.07156
0.07242
0.07421
0.07578
0.07691
0.0774
0.07736
0.0787
0.08037
0.08113
0.08311
0.08522
0.08751
0.08949
0.09092
0.09182
0.09218
0.09164
0.09272
0.09209
0.09236
0.0929
0.09281
0.09232
0.092
0.09151
0.08958
0.08787
0.08598
0.08365
0.08167
0.08068
0.0796
0.07799
0.07534
0.07295
0.07044
0.06846
0.06577
0.06244
0.05876
0.05418
0.05058
0.04627
0.04277
0.0394
0.03522
0.031
0.02623
0.02152
0.01747
0.01357
0.0088
0.00485
0.00126
-0.00288
-0.00539
-0.00755
-0.00952
-0.01204
-0.01451
-0.01734
-0.02026
-0.023
-0.02597
-0.02857
-0.03037
-0.03225
-0.03432
-0.03558
-0.03697
-0.0385
-0.04025
-0.04308
-0.04569
-0.04708
-0.04834
-0.04995
-0.05193
-0.05337
-0.05481
-0.05552
-0.05678
-0.05876
-0.06029
-0.06123
-0.06217
-0.06267
-0.06181
-0.06181
-0.0619
-0.06235
-0.06271
-0.06253
-0.06298
-0.06298
-0.06289
-0.06298
-0.06357
-0.06361
-0.06307
-0.06271
-0.06298
-0.06217
-0.06127
-0.06114
-0.06074
-0.06092
-0.06101
-0.06038
-0.05934
-0.05849
-0.05858
-0.05786
-0.05692
-0.05728
-0.05687
-0.05642
-0.05552
-0.05499
-0.05526
-0.05588
-0.05642
-0.05566
-0.0549
-0.05463
-0.05499
-0.05463
-0.05508
-0.05642
-0.0575
-0.0575
-0.05732
-0.05651
-0.05597
-0.05427
-0.05256
-0.05031
-0.04906
-0.0478
-0.04703
-0.04632
-0.04569
-0.04609
-0.04618
-0.04685
-0.04775
-0.04847
-0.04942
-0.05013
-0.05049
-0.05085
-0.05103
-0.05112
-0.05027
-0.04856
-0.04816
-0.04663
-0.04542
-0.04488
-0.04366
-0.04268
-0.04079
-0.03994
-0.03935
-0.03908
-0.0389
-0.03863
-0.03863
-0.03818
-0.03791
-0.03679
-0.03675
-0.03774
-0.03738
-0.0372
-0.03791
-0.03953
-0.04016
-0.04061
-0.04097
-0.04101
-0.04133
-0.04097
-0.04007
-0.04079
-0.04115
-0.04115
-0.04043
-0.04007
-0.03949
-0.03863
-0.03845
-0.03711
-0.03531
-0.03432
-0.03306
-0.03207
-0.0314
-0.03073
-0.02911
-0.02889
-0.02745
-0.02731
-0.02821
-0.02749
-0.02839
-0.02947
-0.03037
-0.02965
-0.02929
-0.02821
-0.02731
-0.02641
-0.02695
-0.02606
-0.02529
-0.0248
-0.02381
-0.02305
-0.02318
-0.02345
-0.02408
-0.02363
-0.02354
-0.023
-0.02156
-0.02031
-0.02048
-0.01972
-0.01932
-0.01941
-0.01887
-0.01932
-0.01941
-0.01779
-0.01752
-0.01707
-0.01599
-0.01581
-0.01518
-0.01464
-0.01482
-0.01581
-0.01599
-0.01608
-0.01545
-0.01545
-0.01617
-0.01743
-0.01788
-0.01694
-0.01671
-0.01635
-0.01581
-0.01563
-0.01599
-0.01527
-0.01469
-0.01357
-0.01235
-0.01213
-0.0115
-0.01177
-0.01222
-0.01357
-0.01438
-0.01482
-0.01536
-0.0137
-0.01411
-0.01276
-0.01253
-0.01258
-0.01199
-0.01119
-0.01123
-0.01087
-0.0106
-0.00997
-0.0102
-0.01006
-0.00934
-0.00867
-0.00889
-0.01024
-0.01159
-0.01231
-0.01195
-0.01155
-0.01123
-0.01114
-0.01159
-0.01168
-0.01123
-0.01083
-0.01056
-0.00988
-0.00934
-0.00898
-0.0088
-0.00889
-0.008
-0.00656
-0.00521
-0.00296
-0.00189
-0.00112
-0.00117
-0.00121
-0.00153
-0.00184
-0.00157
-0.00139
-0.00144
-0.00063
-0.00072
-0.00027
-0.0009
-0.00108
-0.00148
-0.00234
-0.00288
-0.00252
-0.00108
-0.0009
-0.00063
-0.00036
-9.00E-05
-0.00018
-0.00144
-0.00157
-0.00171
-0.00207
-0.0018
-0.00341
-0.0035
-0.00234
-0.0018
-0.00144
-0.0027
-0.00305
-0.00377
-0.00341
-0.00341
-0.00332
-0.00395
-0.00544
-0.00476
-0.00431
-0.00377
-0.00359
-0.00395
-0.00359
-0.00409
-0.00413
-0.00503
-0.00494
-0.00431
-0.00323
-0.00261
-0.00301
-0.004
-0.00449
-0.00544
-0.00665
-0.00755
-0.00827
-0.00916
-0.0088
-0.008
-0.0075
-0.00701
-0.00768
-0.00755
-0.00683
-0.00647
-0.00593
-0.00588
-0.00701
-0.00683
-0.0071
-0.00606
-0.00557
-0.00593
-0.00611
-0.00683
-0.00719
-0.00746
-0.00773
-0.008
-0.00845
-0.00898
-0.00952
-0.00934
-0.00948
-0.00872
-0.00845
-0.008
-0.00863
-0.00916
-0.00889
-0.00863
-0.00898
-0.00925
-0.00925
-0.00984
-0.0106
-0.01105
-0.01069
-0.01006
-0.01051
-0.00984
-0.00916
-0.00898
-0.00755
-0.00624
-0.00593
-0.00557
-0.0062
-0.00602
-0.00602
-0.00566
-0.00737
-0.00809
-0.00934
-0.01024
-0.01006
-0.01011
-0.01123
-0.01199
-0.01348
-0.01276
-0.01294
-0.01357
-0.01348
-0.0124
-0.01159
-0.0102
-0.01002
-0.00988
-0.01006
-0.01006
-0.01042
-0.01123
-0.01231
-0.01285
-0.01168
-0.01226
-0.0124
-0.01231
-0.01141
-0.0115
-0.01186
-0.01222
-0.01267
-0.01276
-0.01226
-0.01321
-0.01366
-0.01276
-0.01294
-0.01258
-0.01262
-0.01276
-0.01321
-0.01294
-0.01249
-0.0124
-0.01168
-0.01002
-0.00952
-0.00889
-0.00854
-0.00845
-0.00898
-0.00975
-0.01024
-0.01096
-0.01204
-0.01204
-0.01226
-0.01186
-0.01015
-0.00863
-0.00827
-0.00809
-0.00809
-0.00732
-0.00687
-0.00651
-0.00692
-0.00629
-0.00476
-0.00386
-0.00323
-0.00252
-0.00234
-0.00243
-0.00243
-0.00404
-0.00656
-0.00827
-0.00939
-0.00988
-0.00979
-0.0097
-0.01002
-0.00997
-0.01119
-0.01065
-0.01078
-0.00961
-0.00863
-0.00863
-0.00898
-0.00925
-0.00966
-0.00961
-0.0088
-0.00773
-0.00723
-0.00696
-0.00719
-0.00665
-0.00584
-0.00575
-0.00647
-0.0075
-0.00943
-0.00988
-0.00943
-0.00952
-0.00988
-0.00925
-0.00916
-0.00813
-0.00719
-0.00651
-0.00611
-0.00701
-0.00773
-0.00809
-0.01006
-0.0115
-0.01357
-0.01455
-0.01447
-0.0142
-0.0133
-0.01159
-0.0088
-0.00512
-0.00175
0.00207
0.00629
0.01078
0.01536
0.01833
0.01909
0.01927
0.01941
0.01959
0.01977
0.01914
0.01833
0.01698
0.01599
0.01581
0.01689
0.01864
0.01923
0.02062
0.02197
0.02246
0.02291
0.02228
0.02255
0.0221
0.02102
0.01941
0.0195
0.02066
0.02138
0.02138
0.02044
0.01995
0.02066
0.02093
0.02093
0.01941
0.01815
0.01604
0.01455
0.0133
0.01303
0.01204
0.01105
0.01074
0.01006
0.00854
0.00665
0.00494
0.00382
0.00296
0.00234
0.0013
0.00072
0.00063
0.00027
0
-0.00054
-0.00162
-0.00252
-0.00243
-0.00144
0
0.00072
0.00027
0.00036
-0.00045
-0.00171
-0.00305
-0.00359
-0.00283
-0.00332
-0.00422
-0.00503
-0.00629
-0.00746
-0.00863
-0.00809
-0.00822
-0.0084
-0.00854
-0.0084
-0.00809
-0.00854
-0.00764
-0.0062
-0.00566
-0.00476
-0.0044
-0.00395
-0.00413
-0.00332
-0.00252
-0.00305
-0.00422
-0.00512
-0.00467
-0.00467
-0.00467
-0.00476
-0.0053
-0.00557
-0.00544
-0.00548
-0.0062
-0.00737
-0.00777
-0.00809
-0.0097
-0.01132
-0.01186
-0.01294
-0.01464
-0.01626
-0.01923
-0.02588
-0.03369
-0.0442
-0.05615
-0.07053
-0.08562
-0.10171
-0.11711
-0.1318
-0.14555
-0.15588
-0.16069
-0.161
-0.15727
-0.15058
-0.1398
-0.12282
-0.10004
-0.07322
-0.046
-0.01986
0.00773
0.03437
0.06199
0.09546
0.13594
0.18221
0.23504
0.29505
0.36172
0.43234
0.50403
0.5663
0.61185
0.64356
0.66144
0.66064
0.64132
0.60574
0.55704
0.49649
0.42982
0.36181
0.29595
0.23773
0.1876
0.14591
0.11249
0.08913
0.07277
0.0611
0.05337
0.04816
0.04259
0.03688
0.03342
0.03095
0.0292
0.02502
0.01864
0.00957
0.00108
-0.00629
-0.01096
-0.01572
-0.0195
-0.0239
-0.02754
-0.03082
-0.03338
-0.03486
-0.03684
-0.03881
-0.04124
-0.04295
-0.04344
-0.04474
-0.04582
-0.04632
-0.0469
-0.04753
-0.04838
-0.04924
-0.05085
-0.05193
-0.05229
-0.05202
-0.05108
-0.05081
-0.05103
-0.05103
-0.05103
-0.05175
-0.05229
-0.05278
-0.05301
-0.05391
-0.05534
-0.05526
-0.05463
-0.05445
-0.05409
-0.05445
-0.0549
-0.05463
-0.054
-0.05373
-0.05373
-0.05328
-0.05139
-0.05031
-0.04995
-0.04968
-0.05031
-0.05045
-0.04942
-0.04852
-0.04816
-0.0487
-0.04906
-0.04789
-0.04681
-0.04569
-0.04519
-0.0442
-0.04313
-0.0429
-0.04124
-0.03994
-0.03886
-0.03738
-0.03612
-0.03482
-0.0336
-0.03284
-0.03252
-0.0332
-0.03378
-0.03378
-0.03396
-0.03522
-0.03607
-0.03666
-0.03791
-0.03814
-0.03738
-0.0372
-0.03571
-0.03432
-0.0327
-0.03091
-0.02911
-0.02821
-0.02772
-0.02776
-0.02763
-0.02704
-0.02601
-0.02588
-0.02579
-0.02641
-0.0265
-0.02673
-0.02668
-0.02606
-0.02516
-0.0239
-0.02327
-0.02233
-0.02138
-0.02031
-0.02004
-0.01941
-0.01905
-0.01905
-0.0181
-0.01743
-0.01671
-0.01635
-0.01563
-0.01491
-0.01447
-0.01487
-0.0142
-0.01384
-0.01334
-0.01244
-0.01132
-0.0097
-0.00863
-0.00916
-0.00925
-0.0097
-0.00916
-0.00782
-0.00701
-0.00656
-0.00687
-0.00696
-0.00683
-0.00647
-0.00593
-0.00494
-0.0044
-0.00359
-0.00341
-0.00234
-0.00121
-0.00072
0.0009
0.00108
0.0018
0.00314
0.00472
0.0066
0.00773
0.00921
0.01047
0.0115
0.01204
0.01361
0.01438
0.01536
0.01581
0.01635
0.01752
0.0199
0.02102
0.02331
0.02516
0.02623
0.02758
0.02893
0.02947
0.03064
0.03261
0.03432
0.03549
0.0363
0.03774
0.03971
0.04187
0.04461
0.04582
0.04654
0.04798
0.04924
0.0518
0.05463
0.05732
0.06047
0.06163
0.06352
0.06667
0.069
0.07188
0.0743
0.07502
0.07592
0.07637
0.07673
0.07817
0.08032
0.08221
0.0836
0.0841
0.08401
0.08392
0.08468
0.08661
0.08773
0.08832
0.08796
0.08922
0.09056
0.09218
0.0938
0.09488
0.09443
0.0938
0.09348
0.09524
0.09542
0.09492
0.0938
0.09299
0.09164
0.09182
0.09128
0.0911
0.09074
0.08913
0.0867
0.08445
0.08212
0.07835
0.07471
0.07174
0.06756
0.06361
0.05993
0.05534
0.05193
0.04807
0.04447
0.04106
0.03774
0.0345
0.03037
0.02686
0.02246
0.01855
0.01473
0.0115
0.00854
0.00485
0.00144
-0.00323
-0.00683
-0.01015
-0.01253
-0.01527
-0.01851
-0.02039
-0.02188
-0.02345
-0.02498
-0.02632
-0.02758
-0.02965
-0.031
-0.03302
-0.03522
-0.03612
-0.0372
-0.03711
-0.03881
-0.04025
-0.04187
-0.04331
-0.04465
-0.04618
-0.04744
-0.0487
-0.05058
-0.05238
-0.05265
-0.05274
-0.05247
-0.05189
-0.05265
-0.05346
-0.05355
-0.05373
-0.05445
-0.05445
-0.05355
-0.05526
-0.05561
-0.05526
-0.0553
-0.05445
-0.05391
-0.05463
-0.0557
-0.05539
-0.05584
-0.05566
-0.05579
-0.05597
-0.05606
-0.05624
-0.05552
-0.05454
-0.05382
-0.05301
-0.05355
-0.05364
-0.05359
-0.05391
-0.05355
-0.0526
-0.05202
-0.05121
-0.04977
-0.04766
-0.04672
-0.04569
-0.0442
-0.0451
-0.04519
-0.04528
-0.0447
-0.04402
-0.04438
-0.04402
-0.0442
-0.04452
-0.04411
-0.04304
-0.04196
-0.04169
-0.04304
-0.04366
-0.04331
-0.04331
-0.04295
-0.04241
-0.04277
-0.04331
-0.04344
-0.04331
-0.04308
-0.04259
-0.042
-0.04223
-0.04187
-0.04025
-0.03827
-0.03711
-0.03585
-0.03522
-0.03468
-0.03464
-0.0341
-0.03293
-0.03324
-0.03284
-0.03234
-0.03127
-0.03091
-0.03041
-0.03037
-0.03109
-0.02992
-0.02992
-0.03001
-0.0301
-0.03145
-0.03082
-0.02983
-0.02929
-0.02893
-0.02947
-0.03001
-0.03001
-0.0292
-0.02803
-0.02731
-0.02615
-0.02534
-0.02417
-0.02408
-0.02448
-0.02444
-0.02435
-0.023
-0.02156
-0.01896
-0.01734
-0.01617
-0.01563
-0.01563
-0.01581
-0.01514
-0.01438
-0.01384
-0.01357
-0.01325
-0.0133
-0.0124
-0.01078
-0.00988
-0.01038
-0.01186
-0.01289
-0.01384
-0.01393
-0.01357
-0.0142
-0.01451
-0.01406
-0.01402
-0.01379
-0.01312
-0.01128
-0.00952
-0.00836
-0.0084
-0.00827
-0.00786
-0.00827
-0.008
-0.00836
-0.00903
-0.01024
-0.01159
-0.01078
-0.01114
-0.01024
-0.00934
-0.00863
-0.00809
-0.00782
-0.00773
-0.00647
-0.00476
-0.00431
-0.00431
-0.0035
-0.0027
-0.00256
-0.00243
-0.00225
-0.00207
-0.00207
-0.00256
-0.00288
-0.00252
-0.00252
-0.0027
-0.00225
-0.00252
-0.00305
-0.00323
-0.00323
-0.00314
-0.00395
-0.00323
-0.00305
-0.00288
-0.00261
-0.00288
-0.00225
-0.00157
-0.00108
-0.00108
-0.00036
0.00027
0.00112
0.00144
0.00305
0.00386
0.00431
0.00463
0.00422
0.00332
0.0031
0.00346
0.00395
0.00431
0.00494
0.00629
0.00719
0.00872
0.00898
0.0088
0.00827
0.00791
0.00827
0.00809
0.00755
0.00705
0.00665
0.00755
0.00755
0.00836
0.01047
0.01276
0.01334
0.0124
0.01231
0.01114
0.00993
0.00979
0.00889
0.00737
0.00629
0.00629
0.00683
0.00692
0.00683
0.00611
0.00449
0.00368
0.00359
0.00449
0.00566
0.00687
0.00678
0.00719
0.00719
0.00791
0.00755
0.00683
0.00602
0.00656
0.00665
0.00557
0.00476
0.00481
0.00494
0.00548
0.00629
0.00665
0.00755
0.008
0.00773
0.00836
0.00813
0.00836
0.00755
0.00687
0.008
0.00872
0.00863
0.00867
0.00836
0.00849
0.00898
0.00809
0.00791
0.00755
0.00728
0.00656
0.00638
0.00557
0.00539
0.00584
0.00674
0.00701
0.00638
0.0062
0.00584
0.0053
0.00548
0.0049
0.00431
0.00368
0.00332
0.00431
0.00512
0.00606
0.0075
0.008
0.00782
0.00755
0.00701
0.00737
0.00822
0.00988
0.01042
0.01024
0.00988
0.00818
0.0084
0.00773
0.00791
0.00728
0.00629
0.00485
0.00359
0.00252
0.00216
0.00175
0.00153
0.00108
0.00144
0.00211
0.00261
0.00305
0.00395
0.00368
0.00341
0.00377
0.00449
0.00458
0.00359
0.00328
0.00252
0.00216
0.00305
0.00314
0.00458
0.00602
0.00741
0.00719
0.00719
0.00795
0.00988
0.01065
0.0115
0.01186
0.0106
0.00912
0.00773
0.00719
0.00575
0.00544
0.00503
0.00575
0.00539
0.00544
0.00669
0.00755
0.00827
0.00809
0.00791
0.00872
0.0097
0.00898
0.00737
0.00683
0.00701
0.00791
0.00876
0.00791
0.00791
0.00786
0.0071
0.00467
0.00305
0.00243
0.00216
0.00198
0.00135
0.0009
0.00045
0.00072
0.00108
0.00108
0.00135
0.00234
0.00296
0.00431
0.00485
0.004
0.00413
0.0031
0.00261
0.00234
0.00323
0.00359
0.00395
0.00377
0.0035
0.00332
0.00332
0.0035
0.00341
0.00323
0.0027
0.00323
0.00288
0.00256
0.00238
0.0018
0.00112
0.00054
-0.00054
-0.00126
-0.00162
-0.00202
-0.00171
-0.00085
-0.00054
0
0.00031
0
0.00018
0.00018
0.00031
0
0.00027
0.0009
0.0009
0.00126
0.0009
0.00108
0.00112
0.00126
0.00081
0
-0.00054
-0.00099
-0.00018
0.00108
0.0018
0.00108
0.00018
-0.0009
-0.00162
-0.00341
-0.0044
-0.00557
-0.00683
-0.00773
-0.00755
-0.00615
-0.00503
-0.00431
-0.00368
-0.00341
-0.00323
-0.0035
-0.00341
-0.00382
-0.00395
-0.00494
-0.00557
-0.00629
-0.00629
-0.00539
-0.00521
-0.00305
-0.00018
0.00341
0.00669
0.01006
0.01303
0.01635
0.01873
0.02111
0.02354
0.02579
0.02641
0.02686
0.02677
0.02677
0.02731
0.02695
0.02704
0.02727
0.02718
0.02812
0.02839
0.02839
0.02902
0.02965
0.02929
0.02839
0.02938
0.02933
0.02857
0.02803
0.02857
0.02857
0.02848
0.02956
0.03055
0.03091
0.03118
0.03064
0.02839
0.02623
0.0226
0.01905
0.0164
0.015
0.01402
0.01168
0.01051
0.00916
0.00831
0.0062
0.00368
0.00261
0.00126
0.00103
0.00031
0.00108
0.00234
0.00332
0.00323
0.00332
0.00431
0.0044
0.0031
0.00288
0.00288
0.00225
0.00148
-0.00018
-0.00063
-0.00144
-0.00198
-0.00288
-0.00301
-0.00252
-0.00067
0.00018
0.00018
-0.00063
-0.00126
-0.00162
-0.00225
-0.00332
-0.00359
-0.00395
-0.00521
-0.00566
-0.00629
-0.00512
-0.00467
-0.0044
-0.00404
-0.00377
-0.00359
-0.0027
-0.00261
-0.00301
-0.00341
-0.00323
-0.00395
-0.00512
-0.00656
-0.00683
-0.00683
-0.0066
-0.00669
-0.00719
-0.00629
-0.00629
-0.00647
-0.00602
-0.00548
-0.0053
-0.00629
-0.00701
-0.00836
-0.00898
-0.01051
-0.01366
-0.01815
-0.02354
-0.03073
-0.0416
-0.05418
-0.06828
-0.08374
-0.09955
-0.11424
-0.12758
-0.14056
-0.15063
-0.15687
-0.15885
-0.15647
-0.15094
-0.14209
-0.12632
-0.10557
-0.0805
-0.05332
-0.02781
-0.00144
0.0257
0.05269
0.08257
0.12003
0.16244
0.21028
0.26738
0.33207
0.40152
0.47295
0.53925
0.59011
0.62694
0.65048
0.65605
0.64276
0.61239
0.56953
0.51302
0.45049
0.38274
0.31644
0.2566
0.20503
0.16015
0.12372
0.09578
0.07655
0.06406
0.05517
0.04762
0.04232
0.03827
0.03365
0.03019
0.02893
0.02704
0.02264
0.01536
0.00602
-0.00153
-0.00809
-0.01366
-0.01851
-0.02282
-0.02749
-0.03046
-0.03342
-0.03594
-0.03863
-0.04043
-0.04322
-0.04438
-0.04501
-0.04384
-0.04393
-0.04411
-0.0451
-0.0469
-0.04843
-0.04977
-0.05049
-0.0513
-0.05148
-0.05238
-0.05292
-0.05382
-0.05552
-0.0571
-0.05764
-0.05831
-0.05768
-0.05804
-0.05795
-0.05768
-0.05588
-0.05445
-0.05427
-0.05346
-0.05373
-0.05337
-0.05373
-0.05409
-0.05499
-0.05597
-0.05624
-0.05678
-0.05741
-0.05795
-0.05822
-0.0575
-0.05615
-0.05526
-0.05427
-0.05319
-0.05229
-0.05103
-0.04906
-0.04861
-0.04789
-0.04663
-0.046
-0.046
-0.046
-0.04618
-0.04582
-0.04474
-0.04407
-0.04402
-0.04349
-0.04375
-0.04295
-0.04277
-0.0411
-0.04007
-0.03738
-0.03612
-0.03594
-0.03576
-0.03607
-0.0354
-0.03612
-0.03576
-0.03513
-0.03432
-0.03378
-0.03275
-0.03145
-0.03091
-0.03032
-0.02965
-0.0288
-0.02866
-0.02839
-0.02713
-0.02588
-0.02659
-0.02731
-0.02695
-0.02731
-0.02731
-0.02731
-0.0265
-0.02709
-0.0283
-0.02889
-0.02947
-0.02965
-0.02866
-0.02749
-0.02561
-0.02516
-0.02394
-0.02327
-0.02269
-0.02174
-0.02116
-0.02039
-0.01905
-0.0199
-0.01932
-0.01923
-0.01995
-0.02013
-0.01905
-0.01846
-0.01743
-0.01694
-0.01599
-0.015
-0.0142
-0.01348
-0.01339
-0.01294
-0.01222
-0.01033
-0.00952
-0.00863
-0.00719
-0.00683
-0.00692
-0.00629
-0.00611
-0.00539
-0.00476
-0.0044
-0.00341
-0.00252
-0.0018
-0.00126
-0.00108
-0.00108
-0.00126
-0.00036
0.00108
0.00216
0.0035
0.00503
0.00584
0.00683
0.00746
0.0088
0.00997
0.01168
0.01303
0.01464
0.01635
0.01905
0.02048
0.02156
0.02287
0.02489
0.02615
0.02659
0.02803
0.02839
0.02893
0.03028
0.03149
0.03181
0.03252
0.03306
0.0345
0.03621
0.03827
0.03962
0.04079
0.04133
0.04205
0.0434
0.04519
0.0473
0.04834
0.05013
0.05207
0.05418
0.05499
0.05606
0.05773
0.05912
0.05939
0.06145
0.06163
0.06181
0.06267
0.06298
0.06415
0.06469
0.06523
0.06649
0.06801
0.06855
0.06932
0.07156
0.0726
0.07408
0.07637
0.07799
0.07942
0.07996
0.07947
0.07933
0.07987
0.07969
0.07861
0.07619
0.07421
0.07228
0.07084
0.06932
0.06756
0.06586
0.06433
0.06172
0.05948
0.05678
0.05404
0.04959
0.04564
0.04205
0.03827
0.03288
0.02803
0.02251
0.01734
0.0128
0.00845
0.0044
0.00054
-0.00229
-0.00458
-0.00723
-0.00948
-0.01339
-0.01734
-0.02102
-0.02444
-0.02848
-0.03221
-0.03612
-0.0398
-0.04384
-0.04636
-0.04933
-0.05229
-0.05436
-0.05597
-0.05741
-0.05876
-0.05894
-0.06074
-0.06253
-0.06428
-0.06505
-0.06649
-0.06819
-0.06981
-0.07035
-0.07111
-0.07201
-0.07313
-0.07421
-0.07565
-0.07727
-0.07709
-0.07808
-0.07866
-0.07897
-0.0787
-0.07969
-0.08019
-0.08122
-0.08153
-0.0814
-0.08136
-0.0823
-0.08176
-0.08194
-0.08284
-0.08374
-0.08324
-0.08302
-0.08266
-0.08203
-0.08055
-0.0792
-0.07888
-0.0796
-0.08023
-0.07942
-0.0796
-0.07897
-0.0783
-0.07799
-0.07691
-0.07664
-0.07682
-0.07754
-0.07906
-0.07884
-0.07875
-0.07844
-0.0787
-0.07933
-0.07861
-0.07844
-0.07848
-0.0779
-0.07727
-0.07673
-0.07628
-0.07601
-0.0748
-0.07529
-0.0752
-0.07444
-0.07421
-0.07376
-0.07295
-0.07116
-0.07071
-0.07116
-0.0717
-0.07188
-0.07147
-0.07107
-0.07089
-0.07008
-0.0681
-0.06756
-0.06734
-0.06667
-0.06667
-0.06662
-0.06649
-0.06676
-0.06595
-0.06595
-0.06586
-0.06595
-0.0659
-0.06586
-0.06514
-0.06361
-0.06253
-0.06172
-0.0602
-0.05948
-0.05894
-0.05948
-0.06069
-0.0615
-0.06172
-0.06011
-0.05795
-0.05651
-0.05606
-0.05602
-0.0566
-0.05692
-0.05786
-0.0575
-0.05624
-0.0549
-0.05409
-0.054
-0.05427
-0.05332
-0.05274
-0.05117
-0.05049
-0.05112
-0.05193
-0.05139
-0.04995
-0.04906
-0.04789
-0.04807
-0.04744
-0.04744
-0.04708
-0.04632
-0.04492
-0.0451
-0.04569
-0.04537
-0.04546
-0.04546
-0.04447
-0.04434
-0.04452
-0.04483
-0.04438
-0.04434
-0.04366
-0.04286
-0.0425
-0.04034
-0.04007
-0.04133
-0.04205
-0.04254
-0.04241
-0.04106
-0.04079
-0.03953
-0.03935
-0.03917
-0.03823
-0.038
-0.03774
-0.03684
-0.03648
-0.0354
-0.0354
-0.03648
-0.03625
-0.03459
-0.0345
-0.03351
-0.03423
-0.03396
-0.03387
-0.03432
-0.03517
-0.03446
-0.03284
-0.03261
-0.03203
-0.03064
-0.02875
-0.02731
-0.02659
-0.02659
-0.02632
-0.02677
-0.02686
-0.02588
-0.02588
-0.0248
-0.02498
-0.02421
-0.0239
-0.02399
-0.02381
-0.02408
-0.02381
-0.02354
-0.02327
-0.02273
-0.02192
-0.0212
-0.0195
-0.01959
-0.02102
-0.02246
-0.02345
-0.0239
-0.02291
-0.02291
-0.02318
-0.02336
-0.02237
-0.02273
-0.02354
-0.023
-0.02228
-0.02156
-0.02044
-0.02048
-0.02022
-0.01995
-0.01923
-0.01855
-0.0186
-0.01815
-0.0186
-0.01959
-0.02013
-0.0195
-0.0186
-0.01869
-0.01995
-0.01977
-0.01923
-0.01896
-0.01878
-0.01887
-0.0186
-0.01878
-0.01896
-0.01851
-0.01851
-0.01788
-0.01707
-0.01613
-0.01482
-0.0142
-0.01366
-0.01447
-0.01599
-0.01667
-0.01752
-0.01815
-0.01819
-0.01837
-0.01851
-0.01828
-0.01747
-0.01644
-0.01572
-0.01563
-0.01545
-0.01536
-0.01491
-0.01554
-0.01559
-0.01599
-0.01635
-0.0159
-0.0155
-0.01568
-0.01581
-0.0164
-0.01685
-0.01626
-0.01622
-0.01698
-0.01887
-0.01833
-0.01761
-0.01707
-0.01644
-0.01581
-0.01491
-0.01541
-0.01563
-0.01491
-0.01482
-0.01455
-0.01514
-0.01581
-0.01617
-0.01644
-0.01527
-0.01384
-0.01267
-0.01087
-0.01132
-0.01267
-0.01375
-0.01402
-0.0142
-0.01366
-0.0133
-0.01276
-0.01303
-0.01357
-0.01433
-0.015
-0.0155
-0.01595
-0.01586
-0.01559
-0.01667
-0.01761
-0.0181
-0.01725
-0.01694
-0.01653
-0.01617
-0.01482
-0.01491
-0.01541
-0.01563
-0.01473
-0.01491
-0.01491
-0.01635
-0.01644
-0.01509
-0.01384
-0.01339
-0.01325
-0.01366
-0.01563
-0.01689
-0.01698
-0.01626
-0.01536
-0.01415
-0.01312
-0.01271
-0.01222
-0.01168
-0.01096
-0.01042
-0.01119
-0.01226
-0.01321
-0.01348
-0.01357
-0.01357
-0.01294
-0.01285
-0.01213
-0.01204
-0.01258
-0.01276
-0.01222
-0.01132
-0.01222
-0.01123
-0.01195
-0.01204
-0.01204
-0.01168
-0.01186
-0.01312
-0.01375
-0.01447
-0.01455
-0.01523
-0.0159
-0.01599
-0.01509
-0.01527
-0.01491
-0.01482
-0.01518
-0.01491
-0.01536
-0.01581
-0.01662
-0.01559
-0.01366
-0.01258
-0.01231
-0.01222
-0.01186
-0.0115
-0.01204
-0.01294
-0.01402
-0.01509
-0.01563
-0.01617
-0.01581
-0.01545
-0.01518
-0.01411
-0.01366
-0.0124
-0.01195
-0.01132
-0.01186
-0.01078
-0.00979
-0.0093
-0.01132
-0.01222
-0.01276
-0.01321
-0.0124
-0.01177
-0.01015
-0.00997
-0.01119
-0.01141
-0.01168
-0.01204
-0.01186
-0.01168
-0.01204
-0.01249
-0.0124
-0.01123
-0.01119
-0.01114
-0.01222
-0.0124
-0.01222
-0.01186
-0.0119
-0.01177
-0.01087
-0.00979
-0.00898
-0.00948
-0.00934
-0.00818
-0.00854
-0.00988
-0.01087
-0.01204
-0.0119
-0.01024
-0.00925
-0.00782
-0.00737
-0.00692
-0.00566
-0.00566
-0.00575
-0.00593
-0.00593
-0.00732
-0.0088
-0.01006
-0.01006
-0.01051
-0.01051
-0.00997
-0.00898
-0.00719
-0.00557
-0.00288
9.00E-05
0.00341
0.00728
0.01141
0.01464
0.01797
0.02057
0.02251
0.02331
0.02327
0.02426
0.02287
0.02219
0.0212
0.0212
0.02188
0.02282
0.02331
0.02457
0.02606
0.02673
0.02758
0.02731
0.02839
0.02942
0.03001
0.02947
0.02884
0.02857
0.02776
0.02659
0.02615
0.02606
0.02606
0.02619
0.02623
0.02606
0.02466
0.02318
0.02125
0.01968
0.01743
0.01473
0.01366
0.01186
0.01051
0.00898
0.00786
0.00593
0.00449
0.00283
0.00099
0.00081
0.00126
0.00031
-0.00036
-0.00081
-0.00063
-0.00076
-0.00081
-0.00126
-0.00252
-0.00234
-0.00189
-0.00305
-0.00449
-0.00539
-0.00575
-0.00476
-0.0044
-0.00494
-0.00602
-0.00566
-0.00553
-0.00575
-0.00544
-0.00503
-0.00521
-0.00544
-0.00611
-0.00638
-0.00638
-0.00638
-0.00544
-0.00494
-0.00436
-0.00413
-0.00454
-0.00494
-0.00557
-0.00557
-0.00566
-0.00611
-0.00656
-0.00737
-0.00804
-0.00791
-0.00701
-0.00647
-0.00629
-0.00696
-0.00782
-0.00827
-0.0088
-0.00952
-0.00934
-0.00872
-0.01042
-0.01195
-0.01402
-0.01622
-0.01905
-0.02107
-0.02336
-0.0257
-0.02911
-0.0336
-0.04052
-0.05031
-0.06298
-0.07709
-0.0929
-0.10853
-0.12277
-0.13675
-0.14789
-0.15759
-0.16424
-0.16702
-0.16455
-0.15768
-0.14546
-0.12776
-0.10395
-0.07727
-0.04995
-0.02309
0.00575
0.03504
0.06613
0.09955
0.13567
0.17825
0.22915
0.28876
0.35723
0.42937
0.5008
0.5636
0.61472
0.65354
0.67479
0.6769
0.65884
0.62569
0.57798
0.51823
0.44968
0.37645
0.30745
0.24654
0.19532
0.1531
0.1159
0.08508
0.06181
0.04703
0.03603
0.02821
0.02224
0.01788
0.01411
0.0115
0.01065
0.01006
0.00809
0.00319
-0.00386
-0.01042
-0.01527
-0.01896
-0.02331
-0.027
-0.03145
-0.03423
-0.03769
-0.03944
-0.04142
-0.04259
-0.04313
-0.04259
-0.04349
-0.04456
-0.04519
-0.046
-0.04582
-0.04569
-0.04524
-0.04569
-0.046
-0.04654
-0.04762
-0.04879
-0.04888
-0.04915
-0.04924
-0.04888
-0.0495
-0.05067
-0.05085
-0.05175
-0.05265
-0.05301
-0.05328
-0.05193
-0.04968
-0.04757
-0.04658
-0.046
-0.04573
-0.0451
-0.04515
-0.04501
-0.04474
-0.04506
-0.04438
-0.04402
-0.04313
-0.04232
-0.04259
-0.04259
-0.04241
-0.04187
-0.04241
-0.04196
-0.04169
-0.04052
-0.0389
-0.0385
-0.0372
-0.03594
-0.03468
-0.0336
-0.03145
-0.02902
-0.02745
-0.02731
-0.02709
-0.02803
-0.02812
-0.02853
-0.02844
-0.02763
-0.02758
-0.02731
-0.02516
-0.02471
-0.02421
-0.02403
-0.0221
-0.02031
-0.01923
-0.01815
-0.01752
-0.01644
-0.01572
-0.01554
-0.01541
-0.01509
-0.01438
-0.01509
-0.01487
-0.01455
-0.0142
-0.01321
-0.01258
-0.01141
-0.01042
-0.00934
-0.00845
-0.00845
-0.00791
-0.00665
-0.00602
-0.00593
-0.00665
-0.0062
-0.00656
-0.00638
-0.00575
-0.00521
-0.00485
-0.00404
-0.00323
-0.00323
-0.00279
-0.00252
-0.00171
-0.00162
-0.00126
-0.00076
0.00058
0.0009
0.00072
0.00144
0.00144
0.00198
0.00162
0.00126
0.00229
0.00288
0.00377
0.00602
0.00755
0.00827
0.00916
0.00934
0.00988
0.01078
0.01267
0.01366
0.01384
0.015
0.01604
0.01743
0.0195
0.02066
0.02084
0.02147
0.02228
0.02367
0.02462
0.02623
0.02853
0.02947
0.03041
0.03181
0.03306
0.03405
0.03383
0.0345
0.03738
0.03926
0.04169
0.04295
0.04375
0.04438
0.04438
0.04492
0.04546
0.04627
0.04744
0.04959
0.05139
0.05373
0.05534
0.05777
0.05984
0.06217
0.06514
0.06626
0.06738
0.06932
0.07134
0.07385
0.07556
0.07763
0.0796
0.08221
0.08374
0.08571
0.08769
0.0894
0.09128
0.09272
0.09488
0.09537
0.09685
0.09802
0.09977
0.10054
0.10144
0.10215
0.10382
0.10476
0.10534
0.1062
0.10719
0.10804
0.10817
0.1088
0.10979
0.11051
0.11159
0.11294
0.1133
0.11415
0.11392
0.11424
0.11374
0.11303
0.11132
0.10889
0.10683
0.10489
0.1026
0.10027
0.09775
0.09443
0.09232
0.08922
0.08697
0.08517
0.0814
0.0779
0.07331
0.06738
0.06199
0.0575
0.05265
0.04807
0.04295
0.03791
0.0336
0.02812
0.02358
0.01941
0.01509
0.0115
0.00813
0.00386
0.00027
-0.00323
-0.00696
-0.01029
-0.01438
-0.01779
-0.02129
-0.0248
-0.02875
-0.03234
-0.0354
-0.03854
-0.04057
-0.04277
-0.04456
-0.04636
-0.04834
-0.04919
-0.05067
-0.05175
-0.05373
-0.05588
-0.0575
-0.05831
-0.05997
-0.06145
-0.0611
-0.06136
-0.06271
-0.06379
-0.06451
-0.06541
-0.06676
-0.06846
-0.0695
-0.06945
-0.06977
-0.07134
-0.07134
-0.07224
-0.07246
-0.07179
-0.07161
-0.07156
-0.07192
-0.07152
-0.07044
-0.06954
-0.06819
-0.06801
-0.06828
-0.06774
-0.06747
-0.06667
-0.06595
-0.06595
-0.0659
-0.06608
-0.06631
-0.06649
-0.06658
-0.06568
-0.06523
-0.06451
-0.06433
-0.06388
-0.06235
-0.0611
-0.06127
-0.06145
-0.06101
-0.06092
-0.06033
-0.06029
-0.06074
-0.0615
-0.06074
-0.05957
-0.05876
-0.05822
-0.0575
-0.05683
-0.05678
-0.0557
-0.05499
-0.054
-0.05418
-0.05301
-0.05198
-0.05031
-0.04977
-0.04901
-0.04977
-0.04977
-0.05085
-0.05175
-0.05265
-0.05301
-0.05301
-0.05319
-0.05301
-0.05332
-0.05332
-0.05256
-0.05144
-0.04995
-0.04888
-0.04924
-0.04879
-0.04721
-0.04645
-0.04721
-0.04726
-0.04726
-0.04753
-0.04717
-0.0469
-0.04699
-0.04618
-0.04546
-0.04456
-0.0438
-0.04295
-0.04232
-0.04209
-0.04214
-0.04259
-0.04295
-0.04182
-0.04075
-0.04016
-0.03917
-0.03841
-0.038
-0.03845
-0.03841
-0.03715
-0.03738
-0.0372
-0.03751
-0.0372
-0.03684
-0.03603
-0.03504
-0.03378
-0.03288
-0.0319
-0.03109
-0.03055
-0.02983
-0.0301
-0.02996
-0.0305
-0.03019
-0.02911
-0.02907
-0.02889
-0.02911
-0.02947
-0.02857
-0.02857
-0.0283
-0.02749
-0.02794
-0.02749
-0.02758
-0.02641
-0.02552
-0.02556
-0.02615
-0.02677
-0.02606
-0.02493
-0.02421
-0.02349
-0.02363
-0.02327
-0.02237
-0.02138
-0.02017
-0.02039
-0.02048
-0.02066
-0.01995
-0.01869
-0.01756
-0.01707
-0.01725
-0.01797
-0.01761
-0.01707
-0.01622
-0.01509
-0.01473
-0.01491
-0.01536
-0.01581
-0.0159
-0.015
-0.01312
-0.01213
-0.01267
-0.01231
-0.01186
-0.0115
-0.01271
-0.01258
-0.01186
-0.01132
-0.01042
-0.01006
-0.01069
-0.01114
-0.01096
-0.01123
-0.01213
-0.01164
-0.01056
-0.01096
-0.01222
-0.01276
-0.01357
-0.01357
-0.0133
-0.01303
-0.01325
-0.01464
-0.01509
-0.01429
-0.01348
-0.01213
-0.01222
-0.01119
-0.01195
-0.01249
-0.01168
-0.01141
-0.01105
-0.01168
-0.01276
-0.01366
-0.01204
-0.01119
-0.01042
-0.01078
-0.00975
-0.00836
-0.0066
-0.00539
-0.00377
-0.00305
-0.0027
-0.00288
-0.00341
-0.00395
-0.00404
-0.00521
-0.00539
-0.00584
-0.00647
-0.00656
-0.00606
-0.00548
-0.00458
-0.00413
-0.00359
-0.0027
-0.00243
-0.00054
0.00103
0.0009
0.00126
9.00E-05
-0.00018
-0.00054
-0.00108
-0.00126
-0.00198
-0.00314
-0.00413
-0.00431
-0.00404
-0.00332
-0.00288
-0.0027
-0.00252
-0.00162
-0.0009
-0.00018
0.00081
0.00117
0.00117
0.00054
0.00022
-0.00126
-0.0009
-0.00108
-0.00117
-0.00198
-0.00274
-0.00359
-0.00341
-0.0035
-0.00288
-0.00207
-0.00099
-0.00162
-0.00171
-0.0018
-0.00144
-0.00108
-0.00072
0.00018
0.00126
0.00072
0.0009
0.00081
9.00E-05
-0.00013
-0.00018
-0.00036
-0.00099
-0.0013
-0.00099
-0.00076
-0.00094
-0.00018
0.00018
-0.00027
0.00027
4.00E-05
0.00018
-0.00054
-0.0009
-0.00045
-0.0009
-0.00126
-0.00189
-0.00162
-0.00054
-0.00027
-0.0004
0.00027
0.00162
0.00252
0.0027
0.00229
0.00305
0.0031
0.00314
0.00305
0.00288
0.00216
0.00162
0.00184
0.00198
0.00216
0.00126
0.0009
0.00072
0.00108
0.00144
0.00184
0.0018
0.00144
0.00108
0.00189
0.00225
0.00305
0.00485
0.00602
0.00813
0.00916
0.00952
0.00957
0.00818
0.00674
0.00674
0.00606
0.00521
0.00544
0.0049
0.00449
0.00503
0.00584
0.00575
0.00593
0.0071
0.00818
0.00818
0.00809
0.00791
0.00782
0.00705
0.00606
0.00449
0.00449
0.00431
0.00467
0.00449
0.00431
0.0035
0.00216
0.0018
0.00252
0.00288
0.00288
0.00198
0.00207
0.00211
0.00261
0.00288
0.00323
0.00377
0.00467
0.00472
0.00593
0.00584
0.00602
0.00548
0.00431
0.00234
0.00162
0.00162
0.00162
0.00108
0.00171
0.00162
0.0018
0.00198
0.00198
0.00031
-0.00108
-0.00054
-0.00045
-0.00063
-0.00018
-0.00063
-0.0009
-0.00117
-0.0009
-0.00054
-0.00054
-0.00036
-0.00108
-0.00058
-0.0004
-0.00036
-0.00081
-0.00126
-0.00126
-0.00166
-0.00144
-0.00085
-0.00108
-0.00054
-0.00018
0.00117
0.00279
0.00575
0.00961
0.01321
0.01707
0.02022
0.02363
0.02727
0.02938
0.03001
0.03082
0.03028
0.03019
0.02987
0.02956
0.02884
0.02884
0.02767
0.02713
0.0274
0.02785
0.02893
0.03023
0.031
0.03109
0.03172
0.0319
0.0327
0.03311
0.03342
0.03459
0.03499
0.03621
0.0354
0.03513
0.03401
0.03252
0.03037
0.02785
0.02561
0.023
0.02048
0.01941
0.01662
0.01563
0.0142
0.01294
0.01204
0.01213
0.01065
0.00898
0.00773
0.00714
0.00737
0.00656
0.00647
0.00575
0.00539
0.0053
0.00467
0.00449
0.00499
0.00449
0.00359
0.00368
0.00305
0.00252
0.0018
0.00198
0.00126
0.0009
0.00153
0.00108
0.00031
0.00031
0.00094
0.00198
0.00288
0.00288
0.0031
0.0027
0.00341
0.00305
0.00288
0.0035
0.00368
0.00404
0.00377
0.00198
0.00171
0.00216
0.00207
0.00225
0.00126
0.00108
0.00072
-0.00018
-0.00108
-0.00153
-0.00175
-0.00216
-0.00207
-0.00198
-0.00157
-0.00112
-0.00126
-0.00036
-0.00067
-0.00144
-0.00144
-0.00265
-0.00395
-0.00467
-0.00701
-0.00997
-0.01235
-0.01617
-0.02219
-0.02947
-0.03935
-0.05076
-0.06523
-0.08122
-0.0973
-0.11303
-0.12704
-0.1407
-0.15148
-0.1575
-0.15925
-0.15768
-0.15251
-0.14303
-0.12758
-0.10674
-0.08086
-0.05292
-0.02534
0.00238
0.03001
0.05813
0.08899
0.12848
0.17538
0.22785
0.28751
0.35561
0.4282
0.5017
0.57088
0.62443
0.66324
0.68966
0.6963
0.68301
0.65264
0.60808
0.55004
0.48139
0.40862
0.33674
0.27331
0.21707
0.16945
0.13108
0.10332
0.0849
0.07237
0.06397
0.05782
0.05247
0.0478
0.04268
0.03845
0.03531
0.03203
0.02525
0.01756
0.00872
0.0013
-0.00373
-0.00863
-0.0142
-0.01896
-0.02206
-0.02475
-0.02686
-0.02956
-0.03172
-0.03369
-0.03679
-0.0389
-0.04115
-0.04214
-0.04232
-0.04295
-0.04429
-0.04438
-0.04492
-0.04546
-0.04663
-0.0469
-0.04726
-0.04847
-0.04906
-0.04942
-0.05013
-0.05072
-0.05121
-0.05049
-0.05054
-0.05076
-0.05063
-0.05148
-0.05238
-0.05301
-0.05337
-0.05382
-0.05463
-0.05463
-0.05552
-0.05552
-0.05404
-0.05251
-0.05157
-0.04968
-0.04825
-0.04739
-0.0469
-0.0465
-0.04636
-0.04582
-0.04569
-0.04501
-0.04443
-0.04438
-0.04366
-0.04456
-0.04555
-0.046
-0.04658
-0.04582
-0.04434
-0.04259
-0.04151
-0.04169
-0.04115
-0.04079
-0.03962
-0.03895
-0.03935
-0.03944
-0.03881
-0.03877
-0.03845
-0.03765
-0.03791
-0.03791
-0.03706
-0.03774
-0.03711
-0.03666
-0.03576
-0.0345
-0.03333
-0.03342
-0.03266
-0.03136
-0.02983
-0.02695
-0.02579
-0.0248
-0.02475
-0.02525
-0.02457
-0.0239
-0.02354
-0.02318
-0.02269
-0.02084
-0.01887
-0.01752
-0.01563
-0.01438
-0.01393
-0.01438
-0.01473
-0.01491
-0.01411
-0.01375
-0.0124
-0.01051
-0.00952
-0.00934
-0.00836
-0.00854
-0.00934
-0.00894
-0.00979
-0.01033
-0.00988
-0.01042
-0.0102
-0.00925
-0.00854
-0.00755
-0.00629
-0.00575
-0.00463
-0.00279
-0.00162
-0.00054
0
0.00031
0.00162
0.0035
0.00413
0.00521
0.00485
0.0035
0.0027
0.00162
0.0027
0.00359
0.00431
0.00472
0.00575
0.00651
0.00737
0.00818
0.0097
0.01033
0.01123
0.01123
0.01074
0.01159
0.01155
0.01231
0.01348
0.01357
0.01366
0.01455
0.01599
0.01689
0.01851
0.02093
0.02165
0.023
0.02435
0.02552
0.02785
0.02983
0.03221
0.03401
0.0354
0.03657
0.03908
0.04101
0.04133
0.04259
0.04384
0.04573
0.04708
0.04852
0.05067
0.05355
0.05557
0.05795
0.05993
0.06217
0.0637
0.06577
0.06685
0.06756
0.06918
0.0708
0.07251
0.07331
0.07385
0.07484
0.07709
0.07781
0.07888
0.0805
0.08212
0.08347
0.08499
0.08715
0.08877
0.09083
0.09272
0.09483
0.09524
0.09587
0.09649
0.09667
0.09685
0.09694
0.09605
0.0956
0.0956
0.09578
0.09506
0.09631
0.09676
0.09578
0.0956
0.09461
0.09254
0.09056
0.08832
0.08598
0.08275
0.07902
0.07493
0.07134
0.06738
0.06343
0.06002
0.05714
0.05463
0.0504
0.04618
0.04241
0.03881
0.03414
0.03109
0.02749
0.02462
0.02048
0.01734
0.01294
0.00925
0.00606
0.00296
-0.00013
-0.00413
-0.00755
-0.01186
-0.01518
-0.01761
-0.02039
-0.02354
-0.02579
-0.02866
-0.03127
-0.0327
-0.03432
-0.03504
-0.03666
-0.03774
-0.03854
-0.03962
-0.04061
-0.04218
-0.0434
-0.04492
-0.04618
-0.04726
-0.04789
-0.04897
-0.0495
-0.05067
-0.05193
-0.05265
-0.05305
-0.05391
-0.05382
-0.05463
-0.05445
-0.05346
-0.05346
-0.05409
-0.05517
-0.0557
-0.05696
-0.05795
-0.05885
-0.05907
-0.05993
-0.05894
-0.05768
-0.05741
-0.0566
-0.0557
-0.05517
-0.0531
-0.0526
-0.05121
-0.05027
-0.04977
-0.04933
-0.04915
-0.04906
-0.04942
-0.04942
-0.04852
-0.04825
-0.04888
-0.04942
-0.04964
-0.04995
-0.0495
-0.04968
-0.05013
-0.05067
-0.05148
-0.0518
-0.05072
-0.04959
-0.04852
-0.04753
-0.04744
-0.04757
-0.0478
-0.04798
-0.0478
-0.0469
-0.04569
-0.04569
-0.046
-0.04605
-0.04573
-0.04582
-0.046
-0.04569
-0.04456
-0.04331
-0.04191
-0.04115
-0.03971
-0.03931
-0.03917
-0.03899
-0.03917
-0.04016
-0.04097
-0.04016
-0.04106
-0.04133
-0.04223
-0.04223
-0.04259
-0.04214
-0.04205
-0.04142
-0.03994
-0.0385
-0.03742
-0.03648
-0.03535
-0.03468
-0.03432
-0.03486
-0.0354
-0.03648
-0.03679
-0.03643
-0.03612
-0.03625
-0.03558
-0.03468
-0.03432
-0.03351
-0.03324
-0.03252
-0.03216
-0.03199
-0.03163
-0.03082
-0.03073
-0.03001
-0.02956
-0.02956
-0.03019
-0.03091
-0.03091
-0.03032
-0.02929
-0.02844
-0.02754
-0.027
-0.02677
-0.02803
-0.02821
-0.02938
-0.03019
-0.02983
-0.02884
-0.02884
-0.02839
-0.02731
-0.02731
-0.02579
-0.02444
-0.02192
-0.02066
-0.01986
-0.0199
-0.01972
-0.01972
-0.01941
-0.01887
-0.01815
-0.01788
-0.01779
-0.01797
-0.01752
-0.01671
-0.01653
-0.01563
-0.01518
-0.01527
-0.01482
-0.0142
-0.01429
-0.01451
-0.01438
-0.01473
-0.01505
-0.01559
-0.01563
-0.01563
-0.01599
-0.01554
-0.01545
-0.01429
-0.0128
-0.01186
-0.0106
-0.01024
-0.00952
-0.00934
-0.0088
-0.0088
-0.00863
-0.00934
-0.0106
-0.01096
-0.01078
-0.01123
-0.01096
-0.01096
-0.01141
-0.01096
-0.00966
-0.00863
-0.00755
-0.00629
-0.00548
-0.00521
-0.00629
-0.00593
-0.00611
-0.00629
-0.00665
-0.0062
-0.00692
-0.00719
-0.00732
-0.00701
-0.00818
-0.00845
-0.00876
-0.00809
-0.00809
-0.00665
-0.00503
-0.00503
-0.00521
-0.00539
-0.00602
-0.00544
-0.00611
-0.00557
-0.00535
-0.00544
-0.00467
-0.00395
-0.0035
-0.00229
-0.0027
-0.00229
-0.00234
-0.0027
-0.00216
-0.00126
-0.00108
-0.00036
-0.00027
-0.00072
-0.00126
-0.00162
-0.00202
-0.00207
-0.0018
-0.00184
-0.00229
-0.00319
-0.00413
-0.00368
-0.00341
-0.00314
-0.00252
-0.00234
-0.00184
-0.00216
-0.00126
-0.0009
-0.00045
-0.00018
-0.00063
-0.00135
-0.0009
-0.00081
-0.00153
-0.00261
-0.00341
-0.00368
-0.00341
-0.00359
-0.00323
-0.0027
-0.00305
-0.0022
-0.0027
-0.0027
-0.00288
-0.00234
-0.00229
-0.00126
-0.00063
0
-0.00013
-0.00085
-0.00198
-0.00216
-0.00279
-0.00359
-0.00395
-0.00359
-0.00323
-0.00292
-0.00247
-0.00189
-0.00126
-0.00234
-0.00256
-0.00261
-0.00288
-0.00319
-0.00296
-0.00198
-0.00198
-0.00216
-0.00265
-0.00279
-0.00288
-0.00323
-0.0035
-0.00413
-0.00512
-0.00557
-0.00602
-0.00566
-0.00647
-0.00755
-0.00791
-0.008
-0.00773
-0.00737
-0.00701
-0.00665
-0.00656
-0.00629
-0.0062
-0.00575
-0.00557
-0.00629
-0.00737
-0.00719
-0.00728
-0.00872
-0.00889
-0.00925
-0.00863
-0.00701
-0.00719
-0.00755
-0.00818
-0.00827
-0.00916
-0.00988
-0.01006
-0.00966
-0.00925
-0.00836
-0.00773
-0.00764
-0.00768
-0.00737
-0.0071
-0.00782
-0.00773
-0.00809
-0.0088
-0.00863
-0.00822
-0.00764
-0.00714
-0.00791
-0.00786
-0.00714
-0.00553
-0.00575
-0.00521
-0.00544
-0.00593
-0.00611
-0.00602
-0.00575
-0.00629
-0.00638
-0.00629
-0.00638
-0.00593
-0.00494
-0.0044
-0.00386
-0.00413
-0.00467
-0.00485
-0.00494
-0.00458
-0.00512
-0.00575
-0.00638
-0.00737
-0.0075
-0.00836
-0.0084
-0.00809
-0.00759
-0.00692
-0.0062
-0.00544
-0.00422
-0.0018
0
0.00081
0.0013
0.00036
-0.00027
-0.00072
-0.00216
-0.00314
-0.00364
-0.0053
-0.00548
-0.00611
-0.00557
-0.00485
-0.0053
-0.00544
-0.00557
-0.00544
-0.00422
-0.00377
-0.00279
-0.00234
-0.00234
-0.00252
-0.00296
-0.00395
-0.00467
-0.00413
-0.0044
-0.00436
-0.00422
-0.00449
-0.00431
-0.00458
-0.00449
-0.0044
-0.00458
-0.00449
-0.00467
-0.00449
-0.00449
-0.00512
-0.00611
-0.00611
-0.00544
-0.00503
-0.00404
-0.00359
-0.00323
-0.0027
-0.00148
-0.00216
-0.00279
-0.00404
-0.00512
-0.00557
-0.00629
-0.00674
-0.00629
-0.00584
-0.00611
-0.00611
-0.00593
-0.00413
-0.00332
-0.00252
-0.00207
-0.00216
-0.00413
-0.00544
-0.00737
-0.00827
-0.0097
-0.01006
-0.00934
-0.00791
-0.0075
-0.00683
-0.00629
-0.00584
-0.00494
-0.0044
-0.00341
-0.00261
-0.0018
-0.0027
-0.00427
-0.00548
-0.00544
-0.00548
-0.00539
-0.00485
-0.00359
-0.00166
0.0009
0.00449
0.00827
0.01186
0.01599
0.01833
0.0212
0.02282
0.02426
0.02462
0.0257
0.02686
0.02713
0.02722
0.02632
0.02534
0.0248
0.02408
0.02363
0.02327
0.02426
0.0248
0.02543
0.0257
0.0265
0.02641
0.02704
0.0279
0.02803
0.02871
0.02884
0.02857
0.02794
0.02821
0.02812
0.02776
0.0274
0.02659
0.02606
0.0248
0.023
0.02093
0.01887
0.01712
0.01635
0.015
0.0133
0.01213
0.01096
0.00943
0.008
0.00602
0.004
0.00305
0.00288
0.0018
0.00126
0.00099
0.0009
0.00148
0.00108
0.00031
-0.00018
-0.00054
0.00027
0.00031
0.00027
0.00031
0.00031
0
0
-0.00081
-0.00144
-0.00175
-0.00234
-0.00207
-0.00288
-0.00373
-0.00377
-0.00422
-0.0044
-0.00413
-0.00341
-0.00386
-0.00413
-0.00404
-0.00305
-0.00323
-0.00288
-0.00252
-0.0018
-0.00126
-0.00067
-0.00072
-0.00126
-0.00144
-0.0009
-0.00018
0.00031
0.00027
0.00018
0.00031
9.00E-05
-0.00135
-0.00162
-0.00305
-0.00314
-0.00323
-0.00359
-0.00413
-0.00611
-0.00898
-0.0106
-0.01141
-0.01199
-0.01312
-0.01563
-0.01977
-0.02606
-0.03387
-0.04447
-0.05831
-0.07156
-0.08643
-0.10126
-0.11604
-0.12974
-0.1416
-0.14986
-0.15435
-0.15444
-0.1517
-0.14573
-0.13504
-0.11851
-0.09703
-0.07179
-0.04569
-0.02039
0.00584
0.03118
0.0584
0.09218
0.13261
0.17861
0.23162
0.29218
0.36028
0.43243
0.50538
0.56818
0.61347
0.64545
0.66257
0.66252
0.64383
0.61023
0.56378
0.50457
0.43988
0.37142
0.30615
0.24788
0.19712
0.15525
0.12183
0.09739
0.08171
0.0712
0.0646
0.05804
0.05229
0.04632
0.04115
0.038
0.03396
0.02812
0.01941
0.00934
0.00139
-0.00512
-0.00894
-0.0142
-0.01977
-0.0248
-0.0283
-0.03163
-0.0332
-0.0345
-0.03612
-0.03787
-0.03881
-0.03962
-0.04061
-0.04205
-0.04281
-0.04375
-0.04438
-0.04528
-0.04685
-0.04789
-0.04852
-0.04959
-0.05049
-0.05094
-0.05072
-0.05049
-0.05013
-0.04977
-0.04995
-0.0504
-0.05004
-0.05067
-0.05067
-0.05085
-0.05175
-0.05265
-0.05373
-0.05418
-0.05454
-0.05445
-0.0549
-0.05499
-0.05445
-0.05472
-0.05481
-0.05409
-0.05283
-0.05117
-0.05022
-0.04973
-0.04888
-0.04861
-0.04852
-0.04825
-0.04852
-0.0487
-0.04946
-0.04906
-0.04816
-0.0478
-0.04681
-0.046
-0.04501
-0.04456
-0.04313
-0.042
-0.04052
-0.03908
-0.03756
-0.03738
-0.03711
-0.03783
-0.03841
-0.038
-0.03729
-0.03791
-0.03845
-0.038
-0.03684
-0.03558
-0.03369
-0.03252
-0.03172
-0.03118
-0.03046
-0.02987
-0.02956
-0.02938
-0.02947
-0.0283
-0.02731
-0.02713
-0.02695
-0.02686
-0.0265
-0.02615
-0.02565
-0.0248
-0.02435
-0.02327
-0.02228
-0.02111
-0.01923
-0.01842
-0.01788
-0.01707
-0.0159
-0.01527
-0.01563
-0.01631
-0.01572
-0.01473
-0.01384
-0.01366
-0.01294
-0.0133
-0.01348
-0.01438
-0.01402
-0.01267
-0.01195
-0.01132
-0.00966
-0.00809
-0.00773
-0.00863
-0.00746
-0.00629
-0.00575
-0.00629
-0.00575
-0.00539
-0.00368
-0.00225
-0.00126
-0.00117
-0.00126
-0.00162
-0.00126
-0.00072
-0.00031
-0.0009
-0.00144
-0.00153
-0.00081
0.00054
0.00198
0.00386
0.00391
0.00485
0.00606
0.00737
0.00925
0.01083
0.0106
0.01105
0.01177
0.01294
0.01442
0.01635
0.01756
0.01887
0.01941
0.02013
0.02174
0.02399
0.02489
0.0265
0.02776
0.02884
0.03028
0.03163
0.03288
0.03432
0.03594
0.03693
0.03836
0.03836
0.03971
0.04079
0.04115
0.04331
0.04582
0.04807
0.05049
0.05184
0.05296
0.05296
0.05431
0.05624
0.05966
0.0619
0.06361
0.06595
0.06725
0.0681
0.07044
0.07215
0.07327
0.07385
0.07493
0.07619
0.07677
0.07781
0.07965
0.08023
0.08185
0.08369
0.08522
0.08625
0.08737
0.08809
0.09003
0.09038
0.09092
0.09164
0.09164
0.09164
0.09209
0.09344
0.0938
0.0947
0.09434
0.09308
0.09371
0.09344
0.09326
0.09173
0.09065
0.08841
0.08657
0.08392
0.08176
0.07888
0.07601
0.07349
0.0699
0.06649
0.06312
0.05934
0.05624
0.05193
0.04843
0.04402
0.03998
0.03648
0.0336
0.0305
0.02758
0.02394
0.01959
0.01649
0.01258
0.00957
0.00584
0.00288
-0.00036
-0.00323
-0.00539
-0.00764
-0.01033
-0.01222
-0.01595
-0.01851
-0.01968
-0.02048
-0.0221
-0.02318
-0.02453
-0.02713
-0.02983
-0.03199
-0.0336
-0.03558
-0.03738
-0.03953
-0.04106
-0.04232
-0.04241
-0.04295
-0.0442
-0.04546
-0.04591
-0.04708
-0.04793
-0.04915
-0.04942
-0.04982
-0.04897
-0.04977
-0.04968
-0.04986
-0.05013
-0.04995
-0.04991
-0.05103
-0.05198
-0.05238
-0.05202
-0.05265
-0.05292
-0.05216
-0.05148
-0.05094
-0.05049
-0.05013
-0.04924
-0.04861
-0.04937
-0.04924
-0.04942
-0.0487
-0.04906
-0.0487
-0.04879
-0.04834
-0.04816
-0.04699
-0.04735
-0.04681
-0.04614
-0.04492
-0.04384
-0.0438
-0.04456
-0.04573
-0.04645
-0.04618
-0.04609
-0.04492
-0.04438
-0.04438
-0.04474
-0.04456
-0.04358
-0.04281
-0.04331
-0.04358
-0.04286
-0.04232
-0.04142
-0.04151
-0.04066
-0.03989
-0.03881
-0.03783
-0.0372
-0.03747
-0.03733
-0.03809
-0.03872
-0.03854
-0.03845
-0.03836
-0.03791
-0.03791
-0.0372
-0.03711
-0.03648
-0.0363
-0.03491
-0.03428
-0.0336
-0.03306
-0.03181
-0.03172
-0.03064
-0.03055
-0.03073
-0.03127
-0.03239
-0.0327
-0.03248
-0.03118
-0.02983
-0.02848
-0.0283
-0.02893
-0.03073
-0.03145
-0.03172
-0.0314
-0.03019
-0.02911
-0.02821
-0.02821
-0.02727
-0.02623
-0.02462
-0.02372
-0.02282
-0.02242
-0.02246
-0.02255
-0.02269
-0.02273
-0.02282
-0.02309
-0.02354
-0.02421
-0.02516
-0.02601
-0.02641
-0.02749
-0.02785
-0.02655
-0.02623
-0.0265
-0.02668
-0.02641
-0.02462
-0.023
-0.02156
-0.02048
-0.02084
-0.02156
-0.02282
-0.02219
-0.02206
-0.02165
-0.02174
-0.0217
-0.02192
-0.02138
-0.02102
-0.01995
-0.01887
-0.01725
-0.01541
-0.01554
-0.01451
-0.01411
-0.01402
-0.01379
-0.01438
-0.01509
-0.01617
-0.01608
-0.01631
-0.01721
-0.01725
-0.01761
-0.01707
-0.01653
-0.01581
-0.01491
-0.01384
-0.01285
-0.01204
-0.0115
-0.01159
-0.01195
-0.01177
-0.0115
-0.0115
-0.01114
-0.01132
-0.01168
-0.0111
-0.01078
-0.01042
-0.01002
-0.00916
-0.00948
-0.00916
-0.00809
-0.00809
-0.00764
-0.00701
-0.00638
-0.00593
-0.00566
-0.00503
-0.00521
-0.00593
-0.00575
-0.00463
-0.0053
-0.00647
-0.00665
-0.00593
-0.00611
-0.00602
-0.00539
-0.00467
-0.00427
-0.00445
-0.00503
-0.00454
-0.00422
-0.00422
-0.00413
-0.00485
-0.0053
-0.00584
-0.00624
-0.00755
-0.00845
-0.00858
-0.00822
-0.00737
-0.00755
-0.00818
-0.00782
-0.00809
-0.00934
-0.00876
-0.00912
-0.00916
-0.00889
-0.008
-0.00818
-0.00809
-0.00683
-0.00638
-0.00647
-0.00629
-0.00683
-0.00647
-0.0062
-0.0062
-0.00647
-0.00683
-0.00732
-0.0071
-0.00746
-0.0088
-0.008
-0.00791
-0.00782
-0.00755
-0.00629
-0.00665
-0.00647
-0.00593
-0.00562
-0.00642
-0.00737
-0.00863
-0.00907
-0.00943
-0.00898
-0.00863
-0.00809
-0.00701
-0.00737
-0.00683
-0.00566
-0.00539
-0.00395
-0.00305
-0.00234
-0.00252
-0.00314
-0.00449
-0.00449
-0.00476
-0.00467
-0.00575
-0.00611
-0.00593
-0.00624
-0.00638
-0.00665
-0.00719
-0.00669
-0.00647
-0.00508
-0.00377
-0.00431
-0.00449
-0.00485
-0.00512
-0.00656
-0.00692
-0.00683
-0.00683
-0.00593
-0.00544
-0.00422
-0.00409
-0.00377
-0.00386
-0.00386
-0.00395
-0.00377
-0.00296
-0.00171
-0.00157
-0.00189
-0.00288
-0.00427
-0.00503
-0.00602
-0.00575
-0.00575
-0.00557
-0.00701
-0.00737
-0.00746
-0.00737
-0.0075
-0.00728
-0.00773
-0.00889
-0.00966
-0.01051
-0.01033
-0.00916
-0.00827
-0.00732
-0.00701
-0.00575
-0.00467
-0.00373
-0.00377
-0.00413
-0.00548
-0.00629
-0.00656
-0.00737
-0.00746
-0.00773
-0.00759
-0.00809
-0.00782
-0.00737
-0.00665
-0.00638
-0.00701
-0.00714
-0.00836
-0.00943
-0.01024
-0.01159
-0.01204
-0.01195
-0.01168
-0.0115
-0.01168
-0.01222
-0.01271
-0.01312
-0.0124
-0.01222
-0.01132
-0.01078
-0.01033
-0.00984
-0.01042
-0.01069
-0.00988
-0.00898
-0.00952
-0.01024
-0.0097
-0.00952
-0.00966
-0.01015
-0.01087
-0.01132
-0.01096
-0.01087
-0.01181
-0.01226
-0.01294
-0.0124
-0.01213
-0.01186
-0.01177
-0.0115
-0.01132
-0.01132
-0.00988
-0.00943
-0.00898
-0.00961
-0.01047
-0.01042
-0.01168
-0.01222
-0.0124
-0.01186
-0.01141
-0.01123
-0.0106
-0.0102
-0.00854
-0.00804
-0.0071
-0.00809
-0.00791
-0.00786
-0.00818
-0.00827
-0.00889
-0.00858
-0.00863
-0.00827
-0.00737
-0.00701
-0.00508
-0.00386
-0.00184
-0.00117
-0.00108
-0.00108
-0.0018
-0.00207
-0.00243
-0.00314
-0.00323
-0.0035
-0.00449
-0.0044
-0.00458
-0.00575
-0.00719
-0.00773
-0.00836
-0.00818
-0.00791
-0.00683
-0.00593
-0.00494
-0.00445
-0.00296
-0.00243
-0.00126
-0.00063
-9.00E-05
0.00031
0.00018
-0.00036
-0.00108
-0.00198
-0.00162
-0.00198
-0.00162
-0.0018
-0.00252
-0.00274
-0.00377
-0.00283
-0.00364
-0.0035
-0.0035
-0.00261
-0.00198
-0.00234
-0.00198
-0.00202
-0.0027
-0.00305
-0.00413
-0.00467
-0.00548
-0.00539
-0.00575
-0.00647
-0.00544
-0.00467
-0.00431
-0.00359
-0.00377
-0.00395
-0.0035
-0.00404
-0.00467
-0.00544
-0.00683
-0.00764
-0.00692
-0.00584
-0.00544
-0.00476
-0.00279
0.00153
0.00544
0.00988
0.0142
0.01734
0.02031
0.02291
0.02264
0.02453
0.02516
0.02606
0.02641
0.02731
0.02794
0.02821
0.02754
0.02749
0.02704
0.02677
0.02731
0.02767
0.0274
0.02772
0.02785
0.02839
0.02907
0.02996
0.02992
0.0301
0.03019
0.03037
0.03086
0.03145
0.03109
0.03037
0.02902
0.02857
0.0274
0.02552
0.023
0.01959
0.01617
0.01384
0.01222
0.01114
0.01006
0.00957
0.00952
0.00916
0.00863
0.00665
0.00566
0.00431
0.00395
0.00359
0.00305
0.00261
0.00252
0.00274
0.00274
0.00359
0.0044
0.00467
0.0044
0.00359
0.00296
0.0027
0.00305
0.00332
0.00449
0.00449
0.0035
0.00234
0.00198
0.0027
0.00243
0.0027
0.00288
0.00377
0.00368
0.00323
0.00144
0.00135
0.0018
0.00261
0.00328
0.00395
0.00485
0.00512
0.00557
0.00521
0.00521
0.0044
0.00382
0.00323
0.0018
0.0013
0.0009
0.00018
-0.00072
-0.00081
-0.00036
0.00094
0.00126
0.0018
0.00265
0.00234
0.00305
0.00261
0.00112
0.00031
-0.00112
-0.00157
-0.00216
-0.00314
-0.00395
-0.00584
-0.01015
-0.01577
-0.02354
-0.03342
-0.04614
-0.05885
-0.07242
-0.08625
-0.10076
-0.11644
-0.12956
-0.14065
-0.14627
-0.14753
-0.14492
-0.14016
-0.13135
-0.11653
-0.09578
-0.07026
-0.04384
-0.01806
0.00777
0.03396
0.05984
0.09029
0.12812
0.17273
0.22246
0.28122
0.34627
0.41688
0.48907
0.55453
0.60511
0.64096
0.66198
0.66342
0.64815
0.61675
0.5725
0.51553
0.45103
0.38369
0.3176
0.25768
0.20615
0.16262
0.12758
0.10153
0.08324
0.07066
0.06226
0.05624
0.05031
0.04551
0.04088
0.03809
0.03567
0.03297
0.02623
0.01815
0.00952
0.00126
-0.00485
-0.00952
-0.01473
-0.01986
-0.02399
-0.0265
-0.02857
-0.03046
-0.03252
-0.03378
-0.03486
-0.03513
-0.03594
-0.03612
-0.03666
-0.03738
-0.03702
-0.03863
-0.04025
-0.04133
-0.04223
-0.04322
-0.04299
-0.04366
-0.04398
-0.04569
-0.04618
-0.04578
-0.04528
-0.04501
-0.04569
-0.04618
-0.04663
-0.04829
-0.04865
-0.04856
-0.04744
-0.0478
-0.04762
-0.04798
-0.04883
-0.04968
-0.05103
-0.05301
-0.05328
-0.05355
-0.05229
-0.05148
-0.05067
-0.04977
-0.0478
-0.04636
-0.04591
-0.046
-0.04654
-0.04501
-0.04492
-0.04461
-0.04506
-0.04434
-0.04331
-0.04155
-0.04223
-0.04196
-0.04295
-0.04384
-0.04335
-0.04366
-0.04281
-0.0416
-0.04061
-0.03971
-0.03881
-0.03791
-0.03765
-0.03666
-0.03499
-0.03423
-0.03369
-0.03441
-0.03405
-0.03378
-0.0332
-0.03252
-0.03163
-0.03001
-0.02875
-0.02781
-0.02722
-0.02749
-0.02713
-0.02695
-0.02619
-0.02606
-0.0252
-0.02421
-0.02426
-0.02367
-0.0239
-0.02426
-0.02417
-0.02354
-0.02309
-0.02246
-0.02093
-0.02022
-0.01882
-0.01891
-0.01779
-0.01716
-0.01725
-0.01739
-0.01671
-0.01662
-0.01779
-0.01842
-0.01851
-0.01824
-0.01698
-0.01626
-0.01586
-0.01447
-0.01397
-0.0133
-0.01276
-0.01258
-0.0124
-0.01096
-0.00984
-0.00872
-0.00678
-0.00485
-0.00279
-0.00225
-0.00234
-0.00189
-0.0013
-0.00076
-0.00013
-0.00031
-0.00054
0.00031
0.0013
0.00081
0.00072
0.00063
0.00139
0.00234
0.00346
0.00368
0.00476
0.00485
0.00512
0.00557
0.00665
0.00692
0.00791
0.00872
0.00952
0.01038
0.01105
0.01168
0.01258
0.01397
0.01491
0.01518
0.01604
0.01653
0.01797
0.01995
0.02066
0.02224
0.02462
0.02588
0.02704
0.02749
0.02947
0.03127
0.03288
0.0345
0.03634
0.03818
0.03989
0.04106
0.0434
0.04564
0.04816
0.05018
0.05148
0.05256
0.05481
0.0566
0.0584
0.06047
0.06235
0.06419
0.06595
0.06685
0.06667
0.0672
0.06828
0.06927
0.0699
0.07098
0.07277
0.07475
0.07637
0.07799
0.07978
0.08104
0.08284
0.08374
0.08428
0.08535
0.08598
0.08499
0.08445
0.08486
0.08508
0.08508
0.08499
0.08432
0.08419
0.08374
0.08365
0.08275
0.08302
0.08248
0.08167
0.08068
0.07853
0.07628
0.07403
0.07206
0.069
0.06595
0.06253
0.05912
0.05445
0.05031
0.0469
0.04425
0.04133
0.03778
0.03365
0.03055
0.02731
0.02331
0.02013
0.01617
0.01222
0.00849
0.00449
0.00027
-0.00377
-0.00755
-0.01078
-0.01402
-0.01734
-0.0212
-0.02421
-0.02628
-0.02893
-0.03122
-0.03324
-0.0354
-0.03791
-0.03899
-0.04052
-0.04241
-0.04358
-0.04528
-0.04717
-0.04816
-0.04897
-0.04991
-0.05193
-0.05427
-0.05642
-0.05862
-0.06038
-0.06181
-0.06298
-0.06361
-0.06487
-0.0659
-0.0672
-0.0672
-0.06702
-0.0672
-0.06729
-0.06774
-0.0677
-0.06729
-0.06828
-0.06869
-0.06882
-0.06914
-0.06918
-0.06927
-0.06909
-0.0699
-0.06981
-0.07026
-0.0708
-0.07152
-0.07071
-0.07026
-0.06954
-0.069
-0.069
-0.069
-0.06891
-0.06846
-0.06869
-0.0699
-0.06936
-0.06936
-0.06954
-0.0699
-0.06981
-0.06936
-0.06918
-0.06936
-0.06954
-0.06873
-0.06819
-0.06685
-0.06577
-0.06482
-0.06307
-0.06101
-0.06029
-0.05957
-0.06015
-0.06006
-0.05912
-0.0584
-0.05858
-0.05858
-0.05876
-0.05885
-0.05813
-0.05777
-0.05683
-0.05575
-0.05534
-0.05449
-0.05422
-0.05265
-0.05135
-0.04955
-0.04888
-0.04816
-0.04789
-0.04816
-0.04816
-0.04888
-0.04852
-0.04852
-0.04888
-0.04897
-0.0487
-0.04816
-0.04883
-0.04933
-0.04977
-0.04906
-0.04726
-0.04721
-0.04663
-0.04573
-0.04528
-0.04438
-0.04326
-0.04223
-0.04205
-0.0416
-0.04115
-0.04039
-0.04115
-0.04142
-0.04151
-0.04097
-0.04115
-0.04146
-0.04061
-0.0398
-0.03926
-0.03845
-0.03738
-0.03679
-0.03702
-0.03818
-0.03818
-0.03841
-0.03783
-0.03809
-0.03791
-0.03809
-0.03805
-0.03823
-0.03791
-0.03765
-0.03756
-0.03751
-0.03594
-0.03486
-0.03432
-0.03342
-0.03261
-0.03338
-0.03297
-0.03306
-0.03297
-0.03342
-0.03468
-0.03522
-0.03531
-0.0354
-0.03558
-0.03504
-0.03513
-0.03441
-0.03288
-0.03109
-0.02983
-0.02929
-0.02884
-0.02839
-0.02785
-0.02731
-0.02704
-0.02695
-0.02745
-0.02794
-0.02767
-0.02677
-0.02579
-0.02552
-0.02556
-0.02525
-0.0257
-0.02588
-0.02525
-0.02516
-0.0257
-0.02534
-0.0248
-0.02462
-0.0239
-0.02318
-0.02282
-0.02228
-0.02246
-0.02156
-0.02165
-0.02269
-0.02269
-0.023
-0.02394
-0.02367
-0.02327
-0.02219
-0.02129
-0.02048
-0.01995
-0.01932
-0.02004
-0.01995
-0.01954
-0.01986
-0.01932
-0.01954
-0.01968
-0.01932
-0.01887
-0.01851
-0.01932
-0.01941
-0.02013
-0.0212
-0.02237
-0.02314
-0.02269
-0.02192
-0.02161
-0.02219
-0.02287
-0.02273
-0.02246
-0.02242
-0.02201
-0.02215
-0.02197
-0.023
-0.02345
-0.02448
-0.0239
-0.02282
-0.02269
-0.02192
-0.02134
-0.02066
-0.02039
-0.01995
-0.019
-0.01707
-0.01716
-0.01685
-0.01761
-0.01774
-0.01752
-0.01563
-0.01527
-0.01545
-0.01482
-0.01438
-0.01397
-0.01429
-0.01455
-0.01415
-0.01447
-0.01411
-0.01334
-0.01433
-0.01518
-0.01626
-0.01617
-0.01599
-0.0168
-0.01653
-0.01653
-0.01586
-0.01599
-0.01527
-0.01617
-0.01725
-0.01815
-0.01923
-0.0186
-0.01977
-0.01923
-0.01837
-0.01774
-0.01752
-0.01779
-0.01694
-0.01613
-0.01518
-0.01455
-0.0142
-0.01438
-0.01563
-0.01653
-0.01707
-0.01815
-0.01797
-0.01833
-0.01833
-0.01851
-0.01779
-0.01779
-0.01725
-0.01721
-0.01617
-0.01545
-0.01527
-0.01473
-0.01438
-0.01321
-0.0133
-0.01276
-0.01235
-0.01204
-0.01164
-0.01177
-0.01204
-0.01258
-0.0133
-0.01455
-0.01545
-0.01707
-0.01743
-0.01774
-0.01815
-0.01761
-0.01725
-0.01626
-0.01563
-0.01447
-0.01379
-0.01321
-0.01258
-0.01141
-0.01047
-0.0106
-0.01078
-0.01119
-0.01172
-0.01128
-0.01181
-0.01204
-0.01181
-0.01119
-0.01069
-0.00997
-0.00943
-0.00889
-0.00934
-0.00934
-0.00966
-0.00916
-0.00916
-0.00916
-0.00925
-0.00984
-0.01119
-0.0115
-0.01258
-0.01276
-0.01411
-0.01518
-0.01617
-0.01586
-0.01518
-0.01509
-0.01527
-0.01455
-0.01482
-0.01433
-0.01509
-0.01509
-0.01563
-0.01604
-0.01527
-0.01464
-0.01415
-0.01397
-0.01429
-0.01509
-0.01608
-0.01608
-0.01694
-0.01716
-0.01761
-0.01747
-0.01613
-0.01491
-0.01384
-0.01334
-0.01276
-0.0111
-0.01078
-0.0097
-0.0097
-0.00984
-0.01051
-0.01078
-0.01195
-0.01294
-0.0133
-0.01402
-0.01438
-0.01455
-0.01438
-0.01366
-0.01321
-0.01348
-0.0142
-0.01375
-0.01321
-0.01204
-0.01222
-0.0124
-0.01204
-0.01222
-0.01177
-0.01294
-0.01384
-0.01312
-0.01406
-0.01455
-0.01554
-0.0159
-0.01527
-0.01509
-0.0142
-0.01339
-0.01339
-0.01303
-0.01379
-0.01438
-0.01527
-0.01581
-0.01518
-0.01523
-0.01527
-0.01545
-0.01608
-0.01563
-0.01545
-0.01554
-0.01527
-0.01613
-0.01725
-0.01788
-0.01815
-0.01932
-0.01959
-0.02013
-0.02102
-0.02138
-0.02273
-0.02174
-0.02102
-0.01941
-0.01694
-0.01303
-0.00836
-0.00431
0
0.00503
0.00827
0.01114
0.01294
0.01402
0.01473
0.01473
0.01541
0.01626
0.01653
0.01617
0.01608
0.01617
0.01671
0.01716
0.0168
0.01721
0.01878
0.01959
0.02035
0.02138
0.02309
0.023
0.02408
0.02498
0.02588
0.02606
0.02677
0.02713
0.02695
0.02561
0.02453
0.02282
0.02075
0.01815
0.01608
0.01316
0.01006
0.00647
0.00359
0.00117
-0.00157
-0.00265
-0.00395
-0.00431
-0.00323
-0.0035
-0.00377
-0.00413
-0.00377
-0.00279
-0.00377
-0.0044
-0.00467
-0.00449
-0.00476
-0.0053
-0.00521
-0.00584
-0.0062
-0.00544
-0.00548
-0.00557
-0.00373
-0.00296
-0.00296
-0.0027
-0.0027
-0.00229
-0.00171
-0.00121
-0.00085
-0.00112
-0.00193
-0.00216
-0.00225
-0.0018
-0.00162
-0.00144
-0.00144
-0.00126
-0.00031
0.00031
0.00031
0.00031
0.00031
0.00027
0.00027
-0.00045
-0.00045
-0.00072
-0.00198
-0.00234
-0.00368
-0.00458
-0.00395
-0.00422
-0.00449
-0.00413
-0.00449
-0.00476
-0.00557
-0.00584
-0.00575
-0.00755
-0.0088
-0.00939
-0.01024
-0.00934
-0.0097
-0.0106
-0.01294
-0.01761
-0.02534
-0.03486
-0.04654
-0.06006
-0.07511
-0.09074
-0.10656
-0.12156
-0.13495
-0.14519
-0.15238
-0.15507
-0.15364
-0.1478
-0.13657
-0.12102
-0.10036
-0.0752
-0.04834
-0.02219
0.00422
0.03199
0.06002
0.09074
0.12399
0.1619
0.20754
0.26253
0.32596
0.39532
0.46607
0.53189
0.58633
0.63
0.65812
0.66827
0.65659
0.6282
0.58597
0.53045
0.46414
0.39316
0.32201
0.25732
0.20215
0.15543
0.11608
0.0832
0.05822
0.04205
0.03064
0.02264
0.01833
0.01509
0.01181
0.00863
0.00737
0.00674
0.00485
0.0009
-0.0062
-0.01411
-0.02066
-0.02493
-0.02911
-0.03369
-0.03899
-0.04313
-0.04524
-0.04645
-0.04681
-0.04654
-0.04681
-0.0469
-0.046
-0.04591
-0.046
-0.046
-0.04627
-0.04681
-0.04843
-0.04995
-0.05058
-0.05085
-0.05175
-0.05175
-0.05157
-0.05121
-0.0522
-0.05211
-0.05121
-0.04991
-0.04982
-0.04959
-0.04959
-0.04852
-0.04807
-0.0478
-0.04578
-0.04528
-0.04402
-0.04375
-0.04331
-0.04286
-0.04223
-0.04133
-0.03998
-0.0398
-0.03917
-0.03953
-0.03998
-0.04043
-0.04115
-0.04205
-0.04214
-0.04205
-0.04137
-0.04092
-0.03989
-0.03854
-0.03702
-0.03657
-0.03639
-0.03571
-0.03396
-0.03351
-0.03315
-0.03252
-0.03136
-0.03091
-0.03127
-0.03127
-0.03082
-0.02965
-0.0292
-0.02965
-0.0292
-0.02889
-0.02767
-0.02695
-0.0248
-0.02426
-0.02372
-0.02345
-0.02273
-0.0221
-0.02138
-0.02084
-0.02031
-0.0195
-0.0186
-0.01761
-0.01635
-0.01509
-0.01473
-0.01464
-0.01406
-0.01312
-0.0115
-0.00988
-0.0088
-0.00898
-0.00818
-0.00827
-0.00863
-0.00818
-0.00701
-0.00503
-0.00413
-0.00337
-0.00341
-0.00243
-0.00013
0.00126
0.00225
0.00225
0.00288
0.00279
0.00413
0.00539
0.00602
0.00629
0.00575
0.0062
0.00638
0.00678
0.00606
0.00597
0.00629
0.00656
0.0088
0.00988
0.01172
0.01204
0.01294
0.01177
0.01222
0.01312
0.01397
0.01455
0.01599
0.01671
0.01752
0.01779
0.01869
0.01977
0.02093
0.02156
0.02331
0.02462
0.02534
0.02722
0.02844
0.02956
0.03145
0.03288
0.03482
0.0358
0.03616
0.03738
0.03796
0.03791
0.03877
0.03962
0.0407
0.04214
0.0434
0.0451
0.04672
0.04825
0.04995
0.05184
0.05445
0.05624
0.05809
0.05948
0.06181
0.06397
0.06604
0.06828
0.06999
0.07215
0.07367
0.07525
0.07763
0.07978
0.0814
0.08302
0.08437
0.08535
0.08679
0.0894
0.09164
0.09313
0.0947
0.09631
0.09802
0.09946
0.10099
0.10269
0.10409
0.1044
0.10548
0.1062
0.10795
0.10907
0.11033
0.11087
0.11109
0.11177
0.11321
0.11464
0.11716
0.11878
0.11967
0.12066
0.12107
0.12147
0.12156
0.12183
0.12183
0.12183
0.1212
0.12075
0.1199
0.11878
0.11734
0.11617
0.11446
0.11213
0.11033
0.10844
0.10602
0.10377
0.1009
0.09784
0.09524
0.09119
0.08733
0.08347
0.07924
0.07493
0.07008
0.06559
0.06029
0.05499
0.04928
0.04393
0.0394
0.03598
0.03082
0.02552
0.02089
0.01698
0.01231
0.0088
0.00629
0.00395
0.00103
-0.0018
-0.00458
-0.00773
-0.01024
-0.01285
-0.01617
-0.01882
-0.02165
-0.02471
-0.02763
-0.03019
-0.03181
-0.0336
-0.03513
-0.03738
-0.03908
-0.04088
-0.04295
-0.04438
-0.04591
-0.04708
-0.04816
-0.04888
-0.0495
-0.05067
-0.0513
-0.05265
-0.05391
-0.0549
-0.05534
-0.05588
-0.05714
-0.05831
-0.05921
-0.05948
-0.05939
-0.05939
-0.0588
-0.05948
-0.05966
-0.0593
-0.05939
-0.05912
-0.05876
-0.05858
-0.05858
-0.05921
-0.05952
-0.0602
-0.06047
-0.06038
-0.06074
-0.06172
-0.06163
-0.06092
-0.06029
-0.05912
-0.05849
-0.05786
-0.05822
-0.05777
-0.0575
-0.05696
-0.05683
-0.05642
-0.0575
-0.05768
-0.05723
-0.05723
-0.0566
-0.0566
-0.05606
-0.05588
-0.05499
-0.05499
-0.05436
-0.05377
-0.05301
-0.05157
-0.05045
-0.0495
-0.04933
-0.04933
-0.04942
-0.05049
-0.05103
-0.05067
-0.05103
-0.05085
-0.0495
-0.04933
-0.04843
-0.04834
-0.04852
-0.04834
-0.04924
-0.04991
-0.04888
-0.04816
-0.04672
-0.04564
-0.04519
-0.04461
-0.04456
-0.04438
-0.0434
-0.04196
-0.04043
-0.03863
-0.0367
-0.03684
-0.03612
-0.03504
-0.03432
-0.03369
-0.03324
-0.03234
-0.0319
-0.03145
-0.03181
-0.03216
-0.03248
-0.03306
-0.03459
-0.03522
-0.03558
-0.03634
-0.03693
-0.03756
-0.03805
-0.03809
-0.03791
-0.03818
-0.03845
-0.03859
-0.03783
-0.03585
-0.0345
-0.0336
-0.03194
-0.03154
-0.03127
-0.03019
-0.02929
-0.02965
-0.03014
-0.0301
-0.03037
-0.03028
-0.02965
-0.02848
-0.02803
-0.02767
-0.02776
-0.0265
-0.02534
-0.02444
-0.02336
-0.02282
-0.02246
-0.02098
-0.0195
-0.01833
-0.01743
-0.01721
-0.0177
-0.01788
-0.01667
-0.01604
-0.01635
-0.01527
-0.01563
-0.0159
-0.01595
-0.01635
-0.01523
-0.01429
-0.01375
-0.01307
-0.01312
-0.01276
-0.01267
-0.01204
-0.01294
-0.0133
-0.01357
-0.01455
-0.01509
-0.015
-0.01464
-0.01491
-0.01447
-0.01366
-0.01276
-0.01267
-0.01276
-0.01267
-0.01186
-0.01078
-0.01083
-0.0106
-0.01078
-0.00975
-0.00979
-0.00961
-0.00934
-0.00997
-0.01006
-0.00988
-0.01105
-0.01123
-0.01119
-0.01222
-0.0124
-0.01235
-0.0115
-0.01096
-0.01006
-0.00952
-0.00916
-0.00898
-0.00854
-0.00854
-0.00759
-0.00746
-0.00732
-0.00791
-0.00782
-0.00782
-0.00786
-0.00822
-0.00836
-0.00809
-0.00701
-0.00629
-0.00593
-0.00557
-0.00584
-0.00557
-0.00611
-0.00629
-0.00692
-0.00701
-0.00701
-0.00687
-0.00701
-0.00629
-0.00647
-0.00719
-0.00737
-0.00678
-0.00602
-0.0053
-0.00395
-0.00279
-0.0018
-0.00099
-0.00144
-0.00018
0.00031
0
-0.00054
-0.00067
-0.00121
-0.00216
-0.0018
-0.00198
-0.00121
-0.00121
-0.00144
-0.00175
-0.00216
-0.00296
-0.00422
-0.00409
-0.00431
-0.00449
-0.00359
-0.00296
-0.00279
-0.00364
-0.00476
-0.00494
-0.00503
-0.00422
-0.00359
-0.00292
-0.00323
-0.00288
-0.00144
-0.00081
0.00031
0.00144
0.00112
0.00081
0
-0.00036
0.00027
0.00018
0.00144
0.00234
0.00305
0.00332
0.00395
0.0044
0.00427
0.00341
0.00319
0.00198
0.00117
0.00171
0.00135
0.00193
0.00166
0.00112
0.00031
-0.00081
-0.00162
-0.00202
-0.00288
-0.00341
-0.00341
-0.00314
-0.00283
-0.00314
-0.00288
-0.00216
-0.00162
-0.00063
0.00108
0.00234
0.00288
0.00252
0.0027
0.00252
0.00126
0.00126
0.00135
0.00171
0.00162
0.0013
0.0018
0.00198
0.00202
0.00305
0.00171
0.00099
0.00072
0.00234
0.00323
0.00377
0.00377
0.00431
0.00467
0.00512
0.00485
0.00494
0.00436
0.00359
0.00323
0.00252
0.00117
0.00072
-0.00054
-0.00045
-0.00036
-0.00121
-0.00225
-0.00332
-0.00377
-0.00332
-0.00216
-0.00162
-0.00162
-0.00162
-0.00072
-0.00099
-0.00054
0.00031
0.00144
0.00252
0.00198
0.00162
0.00072
0.00054
9.00E-05
-0.00072
-0.00171
-0.00247
-0.00341
-0.00449
-0.00611
-0.00665
-0.00557
-0.00368
-0.00063
0.00252
0.00656
0.01024
0.01473
0.01914
0.02282
0.02552
0.02767
0.02893
0.02956
0.02857
0.0283
0.02794
0.0274
0.02713
0.02691
0.02677
0.02785
0.02911
0.03055
0.03234
0.03333
0.03405
0.03477
0.03486
0.03499
0.03495
0.03549
0.0363
0.03684
0.038
0.0389
0.03863
0.03809
0.0367
0.0354
0.03365
0.03127
0.02893
0.027
0.02426
0.02102
0.01959
0.01923
0.01887
0.01788
0.01581
0.01366
0.0115
0.00952
0.00809
0.00683
0.00629
0.00512
0.0049
0.00467
0.00481
0.00418
0.00413
0.00359
0.00225
0.00171
0.0009
0.00072
9.00E-05
-0.00036
0.00031
0.00081
0.00031
-0.00117
-0.00081
-0.00108
-0.00063
-0.00027
-0.00018
-0.00027
0.00067
0.00117
0.00112
0.00162
0.00296
0.00296
0.00296
0.00323
0.00377
0.00413
0.00395
0.00305
0.00144
0.00031
-0.00054
-0.00117
-0.00144
-0.00054
-0.00027
0.00054
0.00072
0.00031
-0.00018
0.00018
0.00018
0.00126
0.00207
0.00296
0.00323
0.00359
0.00261
0.00198
0.00184
0.00031
-0.00126
-0.00341
-0.00548
-0.00737
-0.00889
-0.01024
-0.01294
-0.01743
-0.02385
-0.03378
-0.04627
-0.05984
-0.07354
-0.08841
-0.10386
-0.11833
-0.13185
-0.1425
-0.14825
-0.1495
-0.14618
-0.14052
-0.12915
-0.11195
-0.0889
-0.06343
-0.03576
-0.00952
0.01855
0.04825
0.07781
0.11118
0.14878
0.19407
0.24582
0.30512
0.37214
0.44105
0.51104
0.57591
0.6282
0.66648
0.68817
0.68912
0.67007
0.63503
0.58889
0.52883
0.45911
0.38562
0.31518
0.25345
0.20125
0.15759
0.12075
0.09182
0.07313
0.0611
0.05265
0.04627
0.04097
0.03594
0.03252
0.03019
0.02893
0.02758
0.02273
0.01653
0.00809
-9.00E-05
-0.00557
-0.00988
-0.01455
-0.01941
-0.0239
-0.02767
-0.03037
-0.03181
-0.03221
-0.03351
-0.03423
-0.03499
-0.03464
-0.03459
-0.03441
-0.03414
-0.03414
-0.03378
-0.03419
-0.03441
-0.0345
-0.03513
-0.0354
-0.03598
-0.03791
-0.03895
-0.04007
-0.0411
-0.04169
-0.04259
-0.04268
-0.0425
-0.04281
-0.04277
-0.04295
-0.04259
-0.0425
-0.04241
-0.04241
-0.04277
-0.04142
-0.04007
-0.03944
-0.03809
-0.03756
-0.03693
-0.03693
-0.03657
-0.03594
-0.0354
-0.03513
-0.03576
-0.03594
-0.03666
-0.03657
-0.03751
-0.03715
-0.0363
-0.03576
-0.0354
-0.03369
-0.03154
-0.031
-0.03019
-0.02924
-0.02839
-0.02709
-0.02601
-0.0257
-0.02507
-0.02525
-0.0248
-0.02444
-0.0248
-0.02435
-0.02336
-0.02336
-0.02381
-0.02354
-0.02156
-0.02066
-0.01995
-0.01887
-0.01725
-0.01608
-0.01514
-0.01478
-0.01482
-0.01581
-0.01725
-0.01869
-0.019
-0.01869
-0.01797
-0.01716
-0.01599
-0.01384
-0.01231
-0.01024
-0.00836
-0.00737
-0.00656
-0.00535
-0.00431
-0.00305
-0.00279
-0.00359
-0.00256
-0.00247
-0.00288
-0.00355
-0.00341
-0.00314
-0.00261
-0.00198
-0.00063
9.00E-05
0.00063
0.00162
0.00234
0.00314
0.00413
0.00485
0.00472
0.00526
0.00512
0.00467
0.00359
0.00355
0.00449
0.00485
0.00539
0.00629
0.00863
0.00916
0.00961
0.00979
0.01051
0.01123
0.01132
0.01186
0.01366
0.01473
0.01482
0.01438
0.01527
0.01613
0.0177
0.02044
0.02138
0.02219
0.02372
0.02498
0.02659
0.02767
0.02893
0.03028
0.03118
0.03216
0.03306
0.03491
0.03666
0.03854
0.04025
0.04146
0.04245
0.04362
0.04501
0.04654
0.04865
0.04933
0.05054
0.05148
0.05305
0.05436
0.0557
0.05665
0.05813
0.06002
0.06145
0.06379
0.06577
0.06752
0.06882
0.07125
0.07349
0.07637
0.07799
0.07879
0.08032
0.08068
0.08284
0.08571
0.08688
0.08859
0.0911
0.09326
0.09479
0.09542
0.09596
0.09631
0.0973
0.09793
0.09892
0.10036
0.10072
0.10171
0.10251
0.10305
0.10359
0.10377
0.10494
0.10557
0.10494
0.10449
0.10584
0.10719
0.10862
0.10984
0.11015
0.11069
0.11015
0.10997
0.11033
0.10835
0.10638
0.10368
0.10126
0.09919
0.0969
0.09452
0.09128
0.08796
0.08468
0.08059
0.07641
0.07309
0.06918
0.06469
0.06114
0.0575
0.05391
0.05049
0.04712
0.04384
0.0403
0.0363
0.03127
0.02615
0.02192
0.01653
0.01204
0.0084
0.00413
0.00072
-0.00341
-0.00737
-0.00988
-0.0133
-0.01586
-0.01828
-0.02048
-0.02246
-0.02498
-0.02641
-0.02893
-0.03091
-0.03396
-0.03634
-0.03863
-0.03962
-0.03994
-0.04169
-0.04349
-0.04479
-0.04636
-0.04753
-0.04847
-0.04924
-0.04852
-0.0487
-0.04959
-0.05013
-0.05108
-0.05157
-0.05157
-0.05229
-0.05287
-0.05382
-0.0549
-0.05588
-0.0566
-0.05732
-0.05831
-0.05804
-0.05719
-0.0566
-0.05642
-0.05588
-0.05499
-0.05481
-0.05467
-0.05409
-0.05211
-0.05121
-0.05031
-0.05049
-0.05031
-0.05148
-0.05301
-0.05301
-0.05247
-0.05238
-0.05292
-0.05332
-0.05368
-0.05391
-0.05301
-0.05265
-0.05045
-0.04681
-0.04506
-0.0442
-0.04277
-0.04241
-0.04173
-0.04205
-0.04169
-0.04151
-0.04214
-0.04205
-0.04241
-0.04205
-0.04187
-0.04169
-0.04169
-0.04178
-0.04173
-0.04151
-0.04106
-0.04061
-0.04034
-0.04061
-0.04043
-0.04133
-0.04128
-0.04097
-0.04061
-0.03899
-0.0389
-0.038
-0.03765
-0.03711
-0.03791
-0.03711
-0.03774
-0.03765
-0.03769
-0.03657
-0.0354
-0.03504
-0.03504
-0.03468
-0.03423
-0.03432
-0.0354
-0.03432
-0.03405
-0.03387
-0.0332
-0.0332
-0.03243
-0.03163
-0.03199
-0.0327
-0.03288
-0.03145
-0.03064
-0.02974
-0.02902
-0.02763
-0.02588
-0.02498
-0.02453
-0.02426
-0.02381
-0.02345
-0.02381
-0.02336
-0.02345
-0.02269
-0.0221
-0.02138
-0.02134
-0.02129
-0.02129
-0.02192
-0.02183
